1,1981.76,61454
1,1980.43,61432
1,1979.09,61431
1,1977.76,61438
1,1976.43,61431
1,1975.09,61432
1,1973.76,61436
1,1972.43,61434
1,1971.09,61438
1,1969.76,61443
1,1968.42,61441
1,1967.09,61436
1,1965.75,61464
1,1964.42,61447
1,1963.08,61439
1,1961.74,61442
1,1960.41,61432
1,1959.07,61440
1,1957.73,61436
1,1956.4,61437
1,1955.06,61428
1,1953.72,61432
1,1952.38,61439
1,1951.04,61426
1,1949.71,61426
1,1948.37,61418
1,1947.03,61437
1,1945.69,61423
1,1944.35,61414
1,1943.01,61444
1,1941.67,61436
1,1940.33,61441
1,1938.99,61428
1,1937.65,61426
1,1936.31,61421
1,1934.97,61446
1,1933.62,61440
1,1932.28,61424
1,1930.94,61425
1,1929.6,61437
1,1928.26,61434
1,1926.91,61449
1,1925.57,61453
1,1924.23,61423
1,1922.88,61437
1,1921.54,61436
1,1920.19,61446
1,1918.85,61452
1,1917.51,61445
1,1916.16,61441
1,1914.82,61439
1,1913.47,61425
1,1912.12,61442
1,1910.78,61447
1,1909.43,61461
1,1908.09,61446
1,1906.74,61439
1,1905.39,61443
1,1904.04,61428
1,1902.7,61442
1,1901.35,61438
1,1900,61449
1,1898.65,61440
1,1897.3,61441
1,1895.95,61427
1,1894.61,61430
1,1893.26,61435
1,1891.91,61429
1,1890.56,61438
1,1889.21,61431
1,1887.86,61434
1,1886.51,61441
1,1885.15,61423
1,1883.8,61443
1,1882.45,61433
1,1881.1,61455
1,1879.75,61433
1,1878.4,61442
1,1877.04,61441
1,1875.69,61434
1,1874.34,61459
1,1872.98,61436
1,1871.63,61437
1,1870.28,61422
1,1868.92,61419
1,1867.57,61441
1,1866.21,61436
1,1864.86,61449
1,1863.5,61446
1,1862.15,61424
1,1860.79,61440
1,1859.44,61433
1,1858.08,61443
1,1856.72,61425
1,1855.37,61444
1,1854.01,61435
1,1852.65,61445
1,1851.29,61423
1,1849.94,61440
1,1848.58,61443
1,1847.22,61429
1,1845.86,61440
1,1844.5,61450
1,1843.14,61448
1,1841.78,61438
1,1840.42,61419
1,1839.06,61420
1,1837.7,61446
1,1836.34,61426
1,1834.98,61425
1,1833.62,61433
1,1832.26,61443
1,1830.9,61449
1,1829.54,61441
1,1828.18,61448
1,1826.81,61430
1,1825.45,61439
1,1824.09,61427
1,1822.73,61436
1,1821.36,61445
1,1820,61446
1,1818.63,61429
1,1817.27,61440
1,1815.91,61432
1,1814.54,61437
1,1813.18,61425
1,1811.81,61425
1,1810.45,61421
1,1809.08,61429
1,1807.71,61424
1,1806.35,61423
1,1804.98,61412
1,1803.61,61425
1,1802.25,61448
1,1800.88,61415
1,1799.51,61425
1,1798.14,61421
1,1796.78,61430
1,1795.41,61425
1,1794.04,61425
1,1792.67,61431
1,1791.3,61414
1,1789.93,61432
1,1788.56,61436
1,1787.19,61430
1,1785.82,61429
1,1784.45,61420
1,1783.08,61431
1,1781.71,61411
1,1780.34,61432
1,1778.96,61402
1,1777.59,61409
1,1776.22,61428
1,1774.85,61427
1,1773.48,61427
1,1772.1,61433
1,1770.73,61427
1,1769.36,61442
1,1767.98,61415
1,1766.61,61413
1,1765.23,61415
1,1763.86,61427
1,1762.48,61412
1,1761.11,61422
1,1759.73,61440
1,1758.36,61417
1,1756.98,61432
1,1755.61,61425
1,1754.23,61438
1,1752.85,61441
1,1751.47,61424
1,1750.1,61425
1,1748.72,61426
1,1747.34,61423
1,1745.96,61435
1,1744.59,61447
1,1743.21,61423
1,1741.83,61439
1,1740.45,61424
1,1739.07,61432
1,1737.69,61399
1,1736.31,61417
1,1734.93,61416
1,1733.55,61414
1,1732.17,61413
1,1730.79,61415
1,1729.41,61420
1,1728.02,61417
1,1726.64,61445
1,1725.26,61421
1,1723.88,61419
1,1722.49,61425
1,1721.11,61410
1,1719.73,61419
1,1718.34,61416
1,1716.96,61423
1,1715.58,61424
1,1714.19,61431
1,1712.81,61418
1,1711.42,61415
1,1710.04,61418
1,1708.65,61440
1,1707.27,61419
1,1705.88,61421
1,1704.49,61428
1,1703.11,61429
1,1701.72,61425
1,1700.33,61429
1,1698.95,61417
1,1697.56,61433
1,1696.17,61414
1,1694.78,61428
1,1693.39,61422
1,1692.01,61438
1,1690.62,61438
1,1689.23,61420
1,1687.84,61429
1,1686.45,61419
1,1685.06,61423
1,1683.67,61429
1,1682.28,61436
1,1680.89,61425
1,1679.49,61425
1,1678.1,61438
1,1676.71,61427
1,1675.32,61430
1,1673.93,61439
1,1672.53,61431
1,1671.14,61430
1,1669.75,61435
1,1668.36,61434
1,1666.96,61422
1,1665.57,61444
1,1664.17,61433
1,1662.78,61426
1,1661.38,61439
1,1659.99,61428
1,1658.59,61426
1,1657.2,61430
1,1655.8,61415
1,1654.41,61430
1,1653.01,61427
1,1651.61,61441
1,1650.22,61431
1,1648.82,61452
1,1647.42,61439
1,1646.02,61450
1,1644.63,61434
1,1643.23,61421
1,1641.83,61456
1,1640.43,61420
1,1639.03,61434
1,1637.63,61445
1,1636.23,61444
1,1634.83,61463
1,1633.43,61434
1,1632.03,61441
1,1630.63,61446
1,1629.23,61438
1,1627.83,61449
1,1626.43,61441
1,1625.02,61435
1,1623.62,61435
1,1622.22,61436
1,1620.82,61420
1,1619.41,61459
1,1618.01,61438
1,1616.61,61430
1,1615.2,61440
1,1613.8,61443
1,1612.39,61457
1,1610.99,61434
1,1609.58,61450
1,1608.18,61439
1,1606.77,61463
1,1605.37,61425
1,1603.96,61449
1,1602.56,61433
1,1601.15,61442
1,1599.74,61433
1,1598.33,61445
1,1596.93,61438
1,1595.52,61441
1,1594.11,61434
1,1592.7,61440
1,1591.29,61432
1,1589.89,61449
1,1588.48,61435
1,1587.07,61425
1,1585.66,61433
1,1584.25,61425
1,1582.84,61442
1,1581.43,61446
1,1580.02,61450
1,1578.6,61440
1,1577.19,61462
1,1575.78,61431
1,1574.37,61445
1,1572.96,61449
1,1571.54,61455
1,1570.13,61441
1,1568.72,61457
1,1567.3,61442
1,1565.89,61447
1,1564.48,61449
1,1563.06,61433
1,1561.65,61446
1,1560.23,61447
1,1558.82,61414
1,1557.4,61462
1,1555.99,61439
1,1554.57,61440
1,1553.16,61449
1,1551.74,61452
1,1550.32,61441
1,1548.91,61450
1,1547.49,61455
1,1546.07,61449
1,1544.65,61444
1,1543.23,61432
1,1541.82,61444
1,1540.4,61451
1,1538.98,61460
1,1537.56,61430
1,1536.14,61450
1,1534.72,61453
1,1533.3,61453
1,1531.88,61452
1,1530.46,61433
1,1529.04,61435
1,1527.62,61446
1,1526.19,61446
1,1524.77,61442
1,1523.35,61441
1,1521.93,61437
1,1520.51,61443
1,1519.08,61448
1,1517.66,61453
1,1516.24,61443
1,1514.81,61442
1,1513.39,61449
1,1511.96,61451
1,1510.54,61432
1,1509.11,61445
1,1507.69,61443
1,1506.26,61436
1,1504.84,61443
1,1503.41,61453
1,1501.98,61447
1,1500.56,61452
1,1499.13,61439
1,1497.7,61436
1,1496.28,61448
1,1494.85,61439
1,1493.42,61450
1,1491.99,61448
1,1490.56,61448
1,1489.13,61460
1,1487.71,61448
1,1486.28,61450
1,1484.85,61444
1,1483.42,61454
1,1481.99,61453
1,1480.55,61443
1,1479.12,61439
1,1477.69,61452
1,1476.26,61435
1,1474.83,61455
1,1473.4,61440
1,1471.96,61450
1,1470.53,61457
1,1469.1,61447
1,1467.67,61453
1,1466.23,61446
1,1464.8,61456
1,1463.36,61464
1,1461.93,61449
1,1460.5,61456
1,1459.06,61450
1,1457.63,61443
1,1456.19,61439
1,1454.75,61453
1,1453.32,61436
1,1451.88,61452
1,1450.44,61449
1,1449.01,61444
1,1447.57,61456
1,1446.13,61435
1,1444.7,61452
1,1443.26,61448
1,1441.82,61438
1,1440.38,61445
1,1438.94,61444
1,1437.5,61449
1,1436.06,61433
1,1434.62,61464
1,1433.18,61442
1,1431.74,61437
1,1430.3,61441
1,1428.86,61444
1,1427.42,61454
1,1425.98,61464
1,1424.54,61435
1,1423.09,61440
1,1421.65,61441
1,1420.21,61458
1,1418.77,61443
1,1417.32,61440
1,1415.88,61433
1,1414.43,61457
1,1412.99,61452
1,1411.55,61432
1,1410.1,61451
1,1408.66,61446
1,1407.21,61434
1,1405.76,61448
1,1404.32,61458
1,1402.87,61459
1,1401.43,61438
1,1399.98,61442
1,1398.53,61451
1,1397.09,61442
1,1395.64,61449
1,1394.19,61441
1,1392.74,61442
1,1391.29,61443
1,1389.84,61444
1,1388.39,61452
1,1386.95,61469
1,1385.5,61453
1,1384.05,61442
1,1382.6,61452
1,1381.14,61452
1,1379.69,61448
1,1378.24,61451
1,1376.79,61461
1,1375.34,61454
1,1373.89,61451
1,1372.44,61446
1,1370.98,61462
1,1369.53,61442
1,1368.08,61430
1,1366.62,61432
1,1365.17,61441
1,1363.71,61452
1,1362.26,61447
1,1360.81,61443
1,1359.35,61462
1,1357.9,61447
1,1356.44,61456
1,1354.98,61451
1,1353.53,61457
1,1352.07,61457
1,1350.61,61454
1,1349.16,61439
1,1347.7,61439
1,1346.24,61440
1,1344.79,61452
1,1343.33,61469
1,1341.87,61450
1,1340.41,61438
1,1338.95,61459
1,1337.49,61455
1,1336.03,61455
1,1334.57,61444
1,1333.11,61457
1,1331.65,61438
1,1330.19,61455
1,1328.73,61448
1,1327.27,61452
1,1325.81,61460
1,1324.34,61448
1,1322.88,61442
1,1321.42,61448
1,1319.96,61438
1,1318.49,61438
1,1317.03,61465
1,1315.57,61450
1,1314.1,61451
1,1312.64,61452
1,1311.17,61453
1,1309.71,61455
1,1308.24,61452
1,1306.78,61441
1,1305.31,61423
1,1303.84,61454
1,1302.38,61453
1,1300.91,61458
1,1299.44,61444
1,1297.98,61445
1,1296.51,61447
1,1295.04,61424
1,1293.57,61441
1,1292.1,61450
1,1290.64,61444
1,1289.17,61445
1,1287.7,61447
1,1286.23,61454
1,1284.76,61442
1,1283.29,61427
1,1281.82,61440
1,1280.34,61471
1,1278.87,61447
1,1277.4,61462
1,1275.93,61453
1,1274.46,61447
1,1272.99,61443
1,1271.51,61444
1,1270.04,61439
1,1268.57,61451
1,1267.09,61445
1,1265.62,61450
1,1264.14,61440
1,1262.67,61445
1,1261.2,61458
1,1259.72,61444
1,1258.25,61457
1,1256.77,61442
1,1255.29,61450
1,1253.82,61435
1,1252.34,61445
1,1250.86,61460
1,1249.39,61441
1,1247.91,61453
1,1246.43,61438
1,1244.95,61444
1,1243.47,61458
1,1242,61459
1,1240.52,61435
1,1239.04,61438
1,1237.56,61461
1,1236.08,61444
1,1234.6,61461
1,1233.12,61444
1,1231.64,61437
1,1230.16,61448
1,1228.67,61447
1,1227.19,61437
1,1225.71,61446
1,1224.23,61427
1,1222.75,61448
1,1221.26,61443
1,1219.78,61454
1,1218.3,61449
1,1216.81,61440
1,1215.33,61466
1,1213.84,61450
1,1212.36,61452
1,1210.87,61460
1,1209.39,61446
1,1207.9,61449
1,1206.42,61447
1,1204.93,61456
1,1203.44,61434
1,1201.96,61450
1,1200.47,61454
1,1198.98,61448
1,1197.49,61446
1,1196.01,61453
1,1194.52,61444
1,1193.03,61437
1,1191.54,61453
1,1190.05,61432
1,1188.56,61437
1,1187.07,61445
1,1185.58,61447
1,1184.09,61454
1,1182.6,61449
1,1181.11,61446
1,1179.62,61446
1,1178.13,61441
1,1176.63,61455
1,1175.14,61456
1,1173.65,61451
1,1172.16,61447
1,1170.66,61430
1,1169.17,61444
1,1167.68,61439
1,1166.18,61443
1,1164.69,61456
1,1163.19,61441
1,1161.7,61449
1,1160.2,61447
1,1158.71,61446
1,1157.21,61453
1,1155.71,61443
1,1154.22,61421
1,1152.72,61451
1,1151.22,61447
1,1149.73,61442
1,1148.23,61453
1,1146.73,61436
1,1145.23,61453
1,1143.73,61441
1,1142.23,61428
1,1140.73,61444
1,1139.23,61454
1,1137.73,61451
1,1136.23,61446
1,1134.73,61439
1,1133.23,61445
1,1131.73,61453
1,1130.23,61445
1,1128.73,61448
1,1127.23,61444
1,1125.72,61441
1,1124.22,61440
1,1122.72,61447
1,1121.21,61450
1,1119.71,61450
1,1118.21,61452
1,1116.7,61453
1,1115.2,61451
1,1113.69,61428
1,1112.19,61451
1,1110.68,61439
1,1109.18,61432
1,1107.67,61462
1,1106.16,61444
1,1104.66,61441
1,1103.15,61458
1,1101.64,61448
1,1100.14,61442
1,1098.63,61432
1,1097.12,61428
1,1095.61,61449
1,1094.1,61448
1,1092.59,61431
1,1091.08,61452
1,1089.57,61432
1,1088.06,61439
1,1086.55,61447
1,1085.04,61460
1,1083.53,61450
1,1082.02,61425
1,1080.51,61444
1,1079,61444
1,1077.48,61450
1,1075.97,61447
1,1074.46,61435
1,1072.94,61446
1,1071.43,61461
1,1069.92,61450
1,1068.4,61445
1,1066.89,61464
1,1065.37,61437
1,1063.86,61450
1,1062.34,61455
1,1060.83,61453
1,1059.31,61450
1,1057.8,61433
1,1056.28,61447
1,1054.76,61449
1,1053.24,61437
1,1051.73,61461
1,1050.21,61441
1,1048.69,61448
1,1047.17,61449
1,1045.65,61429
1,1044.13,61440
1,1042.61,61449
1,1041.09,61469
1,1039.57,61421
1,1038.05,61462
1,1036.53,61439
1,1035.01,61443
1,1033.49,61457
1,1031.97,61449
1,1030.45,61447
1,1028.93,61457
1,1027.4,61450
1,1025.88,61455
1,1024.36,61443
1,1022.83,61449
1,1021.31,61430
1,1019.78,61439
1,1018.26,61452
1,1016.74,61445
1,1015.21,61440
1,1013.68,61444
1,1012.16,61460
1,1010.63,61461
1,1009.11,61453
1,1007.58,61434
1,1006.05,61458
1,1004.53,61448
1,1003,61439
1,1001.47,61446
1,999.942,61437
1,998.413,61430
1,996.884,61453
1,995.355,61451
1,993.825,61448
1,992.296,61459
1,990.765,61441
1,989.235,61450
1,987.704,61446
1,986.173,61446
1,984.642,61433
1,983.11,61433
1,981.578,61459
1,980.045,61431
1,978.513,61446
1,976.98,61433
1,975.446,61459
1,973.913,61447
1,972.379,61425
1,970.844,61441
1,969.31,61452
1,967.775,61445
1,966.24,61440
1,964.704,61450
1,963.168,61431
1,961.632,61469
1,960.095,61468
1,958.559,61459
1,957.021,61444
1,955.484,61444
1,953.946,61455
1,952.408,61449
1,950.87,61437
1,949.331,61450
1,947.792,61431
1,946.253,61464
1,944.713,61452
1,943.173,61431
1,941.632,61428
1,940.092,61434
1,938.551,61450
1,937.01,61450
1,935.468,61446
1,933.926,61439
1,932.384,61454
1,930.841,61448
1,929.298,61443
1,927.755,61442
1,926.211,61444
1,924.668,61451
1,923.123,61444
1,921.579,61454
1,920.034,61455
1,918.489,61456
1,916.944,61452
1,915.398,61456
1,913.852,61441
1,912.305,61451
1,910.758,61447
1,909.211,61436
1,907.664,61454
1,906.116,61449
1,904.568,61455
1,903.02,61450
1,901.471,61430
1,899.922,61441
1,898.373,61445
1,896.823,61448
1,895.273,61439
1,893.723,61448
1,892.172,61442
1,890.621,61446
1,889.07,61455
1,887.519,61448
1,885.967,61441
1,884.415,61448
1,882.862,61442
1,881.309,61458
1,879.756,61453
1,878.202,61442
1,876.649,61454
1,875.094,61446
1,873.54,61444
1,871.985,61452
1,870.43,61447
1,868.875,61446
1,867.319,61442
1,865.763,61446
1,864.206,61439
1,862.649,61435
1,861.092,61453
1,859.535,61457
1,857.977,61457
1,856.419,61459
1,854.861,61454
1,853.302,61451
1,851.743,61424
1,850.184,61461
1,848.624,61440
1,847.064,61449
1,845.504,61446
1,843.943,61441
1,842.382,61452
1,840.821,61454
1,839.259,61458
1,837.697,61448
1,836.135,61453
1,834.572,61438
1,833.009,61450
1,831.446,61447
1,829.882,61430
1,828.319,61445
1,826.754,61461
1,825.19,61455
1,823.625,61429
1,822.06,61439
1,820.494,61444
1,818.928,61443
1,817.362,61450
1,815.795,61442
1,814.229,61438
1,812.661,61438
1,811.094,61452
1,809.526,61437
1,807.958,61446
1,806.389,61461
1,804.821,61445
1,803.251,61448
1,801.682,61444
1,800.112,61450
1,798.542,61453
1,796.971,61464
1,795.401,61456
1,793.83,61457
1,792.258,61447
1,790.686,61441
1,789.114,61442
1,787.542,61452
1,785.969,61456
1,784.396,61449
1,782.822,61435
1,781.249,61450
1,779.675,61443
1,778.1,61447
1,776.525,61445
1,774.95,61441
1,773.375,61448
1,771.799,61440
1,770.223,61442
1,768.647,61445
1,767.07,61444
1,765.493,61439
1,763.915,61452
1,762.338,61438
1,760.76,61458
1,759.181,61463
1,757.603,61460
1,756.023,61447
1,754.444,61441
1,752.864,61436
1,751.284,61452
1,749.704,61444
1,748.123,61446
1,746.542,61454
1,744.961,61444
1,743.379,61456
1,741.797,61452
1,740.215,61443
1,738.632,61441
1,737.049,61465
1,735.466,61448
1,733.882,61457
1,732.298,61439
1,730.713,61438
1,729.129,61451
1,727.544,61452
1,725.958,61448
1,724.373,61432
1,722.787,61447
1,721.2,61461
1,719.614,61447
1,718.027,61439
1,716.439,61460
1,714.851,61444
1,713.263,61432
1,711.675,61441
1,710.086,61446
1,708.497,61446
1,706.908,61434
1,705.318,61436
1,703.728,61447
1,702.138,61459
1,700.547,61451
1,698.956,61440
1,697.365,61463
1,695.773,61448
1,694.181,61450
1,692.588,61445
1,690.996,61445
1,689.403,61435
1,687.809,61441
1,686.215,61438
1,684.621,61444
1,683.027,61462
1,681.432,61439
1,679.837,61445
1,678.242,61437
1,676.646,61451
1,675.05,61445
1,673.453,61451
1,671.857,61451
1,670.26,61446
1,668.662,61442
1,667.064,61443
1,665.466,61444
1,663.868,61456
1,662.269,61458
1,660.67,61443
1,659.07,61437
1,657.471,61449
1,655.87,61435
1,654.27,61447
1,652.669,61435
1,651.068,61444
1,649.466,61443
1,647.865,61451
1,646.262,61428
1,644.66,61453
1,643.057,61446
1,641.454,61443
1,639.85,61450
1,638.247,61444
1,636.642,61450
1,635.038,61452
1,633.433,61447
1,631.828,61454
1,630.222,61438
1,628.616,61451
1,627.01,61459
1,625.403,61445
1,623.796,61431
1,622.189,61438
1,620.582,61429
1,618.974,61432
1,617.365,61453
1,615.757,61435
1,614.148,61453
1,612.538,61445
1,610.929,61446
1,609.319,61465
1,607.708,61436
1,606.098,61447
1,604.487,61449
1,602.875,61430
1,601.264,61454
1,599.652,61443
1,598.039,61444
1,596.426,61438
1,594.813,61436
1,593.2,61448
1,591.586,61440
1,589.972,61433
1,588.358,61447
1,586.743,61441
1,585.128,61443
1,583.512,61451
1,581.897,61443
1,580.28,61432
1,578.664,61456
1,577.047,61444
1,575.43,61449
1,573.812,61435
1,572.194,61460
1,570.576,61442
1,568.958,61446
1,567.339,61454
1,565.72,61452
1,564.1,61452
1,562.48,61450
1,560.86,61441
1,559.239,61437
1,557.618,61438
1,555.997,61451
1,554.375,61447
1,552.753,61450
1,551.131,61455
1,549.508,61439
1,547.885,61437
1,546.262,61453
1,544.638,61440
1,543.014,61445
1,541.389,61442
1,539.765,61433
1,538.14,61437
1,536.514,61432
1,534.888,61434
1,533.262,61449
1,531.636,61441
1,530.009,61455
1,528.382,61450
1,526.754,61445
1,525.126,61449
1,523.498,61460
1,521.869,61465
1,520.24,61455
1,518.611,61439
1,516.982,61442
1,515.352,61455
1,513.721,61469
1,512.091,61438
1,510.46,61442
1,508.828,61449
1,507.197,61433
1,505.565,61440
1,503.932,61445
1,502.299,61435
1,500.666,61447
1,499.033,61449
1,497.399,61447
1,495.765,61442
1,494.13,61441
1,492.496,61450
1,490.86,61455
1,489.225,61452
1,487.589,61437
1,485.953,61442
1,484.316,61430
1,482.679,61444
1,481.042,61451
1,479.404,61460
1,477.766,61453
1,476.128,61434
1,474.489,61441
1,472.85,61449
1,471.211,61450
1,469.571,61427
1,467.931,61452
1,466.29,61441
1,464.65,61453
1,463.008,61432
1,461.367,61448
1,459.725,61442
1,458.083,61440
1,456.44,61441
1,454.797,61436
1,453.154,61457
1,451.511,61442
1,449.867,61445
1,448.222,61443
1,446.578,61432
1,444.933,61428
1,443.287,61438
1,441.642,61445
1,439.995,61454
1,438.349,61442
1,436.702,61448
1,435.055,61454
1,433.408,61440
1,431.76,61443
1,430.112,61453
1,428.463,61440
1,426.814,61425
1,425.165,61432
1,423.515,61442
1,421.865,61451
1,420.215,61440
1,418.564,61435
1,416.913,61429
1,415.262,61448
1,413.61,61446
1,411.958,61441
1,410.306,61443
1,408.653,61454
1,407,61459
1,405.346,61439
1,403.692,61433
1,402.038,61445
1,400.383,61452
1,398.729,61453
1,397.073,61449
1,395.418,61449
1,393.762,61442
1,392.105,61448
1,390.449,61435
1,388.791,61452
1,387.134,61446
1,385.476,61437
1,383.818,61430
1,382.16,61447
1,380.501,61445
1,378.842,61437
1,377.182,61442
1,375.522,61445
1,373.862,61436
1,372.201,61438
1,370.54,61440
1,368.879,61439
1,367.217,61435
1,365.555,61454
1,363.893,61451
1,362.23,61459
1,360.567,61440
1,358.903,61442
1,357.239,61432
1,355.575,61457
1,353.911,61437
1,352.246,61451
1,350.58,61432
1,348.915,61443
1,347.249,61449
1,345.582,61443
1,343.916,61447
1,342.249,61441
1,340.581,61438
1,338.913,61434
1,337.245,61446
1,335.577,61439
1,333.908,61449
1,332.238,61446
1,330.569,61435
1,328.899,61462
1,327.229,61453
1,325.558,61437
1,323.887,61458
1,322.215,61456
1,320.544,61451
1,318.871,61431
1,317.199,61426
1,315.526,61444
1,313.853,61445
1,312.179,61447
1,310.505,61435
1,308.831,61445
1,307.156,61446
1,305.481,61431
1,303.806,61449
1,302.13,61445
1,300.454,61449
1,298.778,61435
1,297.101,61429
1,295.424,61426
1,293.746,61430
1,292.068,61429
1,290.39,61431
1,288.711,61421
1,287.032,61447
1,285.353,61452
1,283.673,61442
1,281.993,61426
1,280.312,61465
1,278.632,61439
1,276.95,61426
1,275.269,61450
1,273.587,61446
1,271.905,61441
1,270.222,61445
1,268.539,61435
1,266.856,61456
1,265.172,61440
1,263.488,61441
1,261.803,61454
1,260.118,61437
1,258.433,61438
1,256.748,61444
1,255.062,61452
1,253.375,61430
1,251.689,61427
1,250.002,61434
1,248.314,61439
1,246.626,61421
1,244.938,61460
1,243.25,61443
1,241.561,61447
1,239.872,61448
1,238.182,61449
1,236.492,61438
1,234.802,61436
1,233.111,61450
1,231.42,61443
1,229.729,61427
1,228.037,61446
1,226.345,61436
1,224.652,61459
1,222.959,61438
1,221.266,61429
1,219.572,61441
1,217.878,61449
1,216.184,61430
1,214.489,61438
1,212.794,61446
1,211.098,61451
1,209.403,61435
1,207.706,61429
1,206.01,61446
1,204.313,61438
1,202.615,61447
1,200.918,61431
1,199.22,61446
1,197.521,61445
1,195.822,61439
1,194.123,61440
1,192.424,61436
1,190.724,61449
1,189.023,61441
1,187.323,61433
1,185.622,61441
1,183.92,61439
1,182.219,61443
1,180.516,61451
1,178.814,61444
1,177.111,61443
1,175.408,61450
1,173.704,61443
1,172,61429
1,170.296,61441
1,168.591,61441
1,166.886,61444
1,165.18,61440
1,163.474,61448
1,161.768,61448
1,160.062,61448
1,158.355,61450
1,156.647,61448
1,154.94,61459
1,153.231,61434
1,151.523,61444
1,149.814,61448
1,148.105,61450
1,146.395,61438
1,144.685,61435
1,142.975,61438
1,141.264,61434
1,139.553,61454
1,137.842,61445
1,136.13,61424
1,134.418,61452
1,132.705,61447
1,130.992,61439
1,129.279,61435
1,127.565,61441
1,125.851,61449
1,124.137,61440
1,122.422,61454
1,120.707,61441
1,118.991,61446
1,117.275,61439
1,115.559,61432
1,113.842,61453
1,112.125,61427
1,110.407,61435
1,108.69,61430
1,106.971,61430
1,105.253,61443
1,103.534,61434
1,101.815,61456
1,100.095,61427
1,98.3747,61442
1,96.6542,61429
1,94.9334,61456
1,93.2122,61439
1,91.4906,61438
1,89.7686,61447
1,88.0462,61441
1,86.3235,61439
1,84.6004,61424
1,82.8769,61433
1,81.153,61447
1,79.4288,61423
1,77.7041,61444
1,75.9791,61447
1,74.2538,61423
1,72.528,61455
1,70.8019,61430
1,69.0753,61429
1,67.3484,61419
1,65.6212,61453
1,63.8935,61440
1,62.1655,61437
1,60.4371,61445
1,58.7083,61445
1,56.9791,61441
1,55.2495,61442
1,53.5196,61443
1,51.7893,61429
1,50.0586,61441
1,48.3275,61453
1,46.5961,61449
1,44.8642,61426
1,43.132,61438
1,41.3994,61445
1,39.6665,61415
1,37.9331,61444
1,36.1994,61452
1,34.4652,61439
1,32.7307,61440
1,30.9958,61448
1,29.2606,61441
1,27.5249,61451
1,25.7889,61453
1,24.0525,61430
1,22.3157,61444
1,20.5785,61433
1,18.841,61423
1,17.103,61440
1,15.3647,61448
1,13.626,61437
1,11.8869,61427
1,10.1474,61435
1,8.40756,61441
1,6.66732,61437
1,4.92669,61436
1,3.18569,61429
1,1.44429,61439
1,-0.297481,61449
1,-2.03964,61436
1,-3.78218,61429
1,-5.52511,61450
1,-7.26843,61437
1,-9.01212,61430
1,-10.7562,61443
1,-12.5007,61448
1,-14.2455,61450
1,-15.9908,61438
1,-17.7364,61435
1,-19.4824,61431
1,-21.2288,61435
1,-22.9756,61454
1,-24.7227,61448
1,-26.4703,61441
1,-28.2182,61432
1,-29.9665,61432
1,-31.7152,61442
1,-33.4643,61450
1,-35.2138,61430
1,-36.9637,61425
1,-38.7139,61450
1,-40.4646,61430
1,-42.2156,61444
1,-43.967,61430
1,-45.7188,61428
1,-47.471,61428
1,-49.2236,61409
1,-50.9765,61406
1,-52.7299,61435
1,-54.4836,61431
1,-56.2378,61430
1,-57.9923,61425
1,-59.7472,61431
1,-61.5025,61347
1,-63.2582,61370
1,-65.0142,61352
1,-66.7707,61723
