1,1981.76,61423
1,1980.43,61403
1,1979.09,61404
1,1977.76,61417
1,1976.43,61412
1,1975.09,61419
1,1973.76,61407
1,1972.43,61400
1,1971.09,61407
1,1969.76,61407
1,1968.42,61417
1,1967.09,61407
1,1965.75,61409
1,1964.42,61401
1,1963.08,61394
1,1961.74,61389
1,1960.41,61409
1,1959.07,61426
1,1957.73,61415
1,1956.4,61420
1,1955.06,61396
1,1953.72,61401
1,1952.38,61403
1,1951.04,61406
1,1949.71,61413
1,1948.37,61413
1,1947.03,61419
1,1945.69,61401
1,1944.35,61402
1,1943.01,61408
1,1941.67,61406
1,1940.33,61396
1,1938.99,61409
1,1937.65,61410
1,1936.31,61414
1,1934.97,61413
1,1933.62,61413
1,1932.28,61406
1,1930.94,61422
1,1929.6,61402
1,1928.26,61418
1,1926.91,61402
1,1925.57,61406
1,1924.23,61411
1,1922.88,61416
1,1921.54,61414
1,1920.19,61407
1,1918.85,61403
1,1917.51,61401
1,1916.16,61411
1,1914.82,61420
1,1913.47,61398
1,1912.12,61399
1,1910.78,61420
1,1909.43,61406
1,1908.09,61403
1,1906.74,61409
1,1905.39,61395
1,1904.04,61422
1,1902.7,61401
1,1901.35,61400
1,1900,61424
1,1898.65,61411
1,1897.3,61398
1,1895.95,61383
1,1894.61,61411
1,1893.26,61405
1,1891.91,61415
1,1890.56,61407
1,1889.21,61413
1,1887.86,61404
1,1886.51,61399
1,1885.15,61402
1,1883.8,61396
1,1882.45,61418
1,1881.1,61403
1,1879.75,61420
1,1878.4,61402
1,1877.04,61400
1,1875.69,61403
1,1874.34,61403
1,1872.98,61397
1,1871.63,61402
1,1870.28,61401
1,1868.92,61394
1,1867.57,61415
1,1866.21,61412
1,1864.86,61420
1,1863.5,61396
1,1862.15,61421
1,1860.79,61411
1,1859.44,61399
1,1858.08,61408
1,1856.72,61391
1,1855.37,61391
1,1854.01,61401
1,1852.65,61420
1,1851.29,61407
1,1849.94,61393
1,1848.58,61402
1,1847.22,61404
1,1845.86,61415
1,1844.5,61408
1,1843.14,61413
1,1841.78,61398
1,1840.42,61413
1,1839.06,61402
1,1837.7,61404
1,1836.34,61386
1,1834.98,61414
1,1833.62,61412
1,1832.26,61412
1,1830.9,61404
1,1829.54,61419
1,1828.18,61402
1,1826.81,61407
1,1825.45,61389
1,1824.09,61393
1,1822.73,61407
1,1821.36,61396
1,1820,61402
1,1818.63,61405
1,1817.27,61407
1,1815.91,61409
1,1814.54,61415
1,1813.18,61412
1,1811.81,61399
1,1810.45,61392
1,1809.08,61403
1,1807.71,61405
1,1806.35,61408
1,1804.98,61405
1,1803.61,61413
1,1802.25,61411
1,1800.88,61403
1,1799.51,61398
1,1798.14,61408
1,1796.78,61417
1,1795.41,61394
1,1794.04,61387
1,1792.67,61411
1,1791.3,61404
1,1789.93,61414
1,1788.56,61404
1,1787.19,61412
1,1785.82,61393
1,1784.45,61416
1,1783.08,61401
1,1781.71,61416
1,1780.34,61403
1,1778.96,61418
1,1777.59,61397
1,1776.22,61405
1,1774.85,61406
1,1773.48,61404
1,1772.1,61410
1,1770.73,61403
1,1769.36,61398
1,1767.98,61409
1,1766.61,61400
1,1765.23,61406
1,1763.86,61398
1,1762.48,61405
1,1761.11,61407
1,1759.73,61395
1,1758.36,61407
1,1756.98,61416
1,1755.61,61405
1,1754.23,61404
1,1752.85,61409
1,1751.47,61394
1,1750.1,61398
1,1748.72,61390
1,1747.34,61414
1,1745.96,61397
1,1744.59,61403
1,1743.21,61398
1,1741.83,61405
1,1740.45,61416
1,1739.07,61402
1,1737.69,61418
1,1736.31,61400
1,1734.93,61404
1,1733.55,61408
1,1732.17,61390
1,1730.79,61398
1,1729.41,61390
1,1728.02,61386
1,1726.64,61408
1,1725.26,61394
1,1723.88,61398
1,1722.49,61399
1,1721.11,61387
1,1719.73,61404
1,1718.34,61400
1,1716.96,61409
1,1715.58,61393
1,1714.19,61403
1,1712.81,61418
1,1711.42,61399
1,1710.04,61432
1,1708.65,61405
1,1707.27,61401
1,1705.88,61398
1,1704.49,61398
1,1703.11,61399
1,1701.72,61395
1,1700.33,61390
1,1698.95,61409
1,1697.56,61395
1,1696.17,61404
1,1694.78,61403
1,1693.39,61391
1,1692.01,61407
1,1690.62,61404
1,1689.23,61406
1,1687.84,61407
1,1686.45,61396
1,1685.06,61410
1,1683.67,61396
1,1682.28,61412
1,1680.89,61386
1,1679.49,61409
1,1678.1,61421
1,1676.71,61401
1,1675.32,61408
1,1673.93,61387
1,1672.53,61405
1,1671.14,61394
1,1669.75,61393
1,1668.36,61398
1,1666.96,61390
1,1665.57,61416
1,1664.17,61407
1,1662.78,61410
1,1661.38,61401
1,1659.99,61416
1,1658.59,61417
1,1657.2,61410
1,1655.8,61397
1,1654.41,61399
1,1653.01,61398
1,1651.61,61405
1,1650.22,61415
1,1648.82,61408
1,1647.42,61416
1,1646.02,61397
1,1644.63,61421
1,1643.23,61426
1,1641.83,61412
1,1640.43,61404
1,1639.03,61408
1,1637.63,61403
1,1636.23,61407
1,1634.83,61406
1,1633.43,61400
1,1632.03,61411
1,1630.63,61405
1,1629.23,61398
1,1627.83,61405
1,1626.43,61412
1,1625.02,61416
1,1623.62,61422
1,1622.22,61408
1,1620.82,61405
1,1619.41,61421
1,1618.01,61419
1,1616.61,61404
1,1615.2,61413
1,1613.8,61404
1,1612.39,61404
1,1610.99,61401
1,1609.58,61415
1,1608.18,61407
1,1606.77,61402
1,1605.37,61399
1,1603.96,61406
1,1602.56,61417
1,1601.15,61416
1,1599.74,61428
1,1598.33,61409
1,1596.93,61416
1,1595.52,61422
1,1594.11,61406
1,1592.7,61405
1,1591.29,61417
1,1589.89,61407
1,1588.48,61404
1,1587.07,61410
1,1585.66,61398
1,1584.25,61409
1,1582.84,61416
1,1581.43,61412
1,1580.02,61409
1,1578.6,61409
1,1577.19,61411
1,1575.78,61412
1,1574.37,61405
1,1572.96,61410
1,1571.54,61398
1,1570.13,61403
1,1568.72,61420
1,1567.3,61429
1,1565.89,61408
1,1564.48,61402
1,1563.06,61417
1,1561.65,61406
1,1560.23,61396
1,1558.82,61407
1,1557.4,61418
1,1555.99,61407
1,1554.57,61403
1,1553.16,61418
1,1551.74,61404
1,1550.32,61425
1,1548.91,61415
1,1547.49,61418
1,1546.07,61416
1,1544.65,61414
1,1543.23,61407
1,1541.82,61396
1,1540.4,61395
1,1538.98,61412
1,1537.56,61412
1,1536.14,61391
1,1534.72,61406
1,1533.3,61409
1,1531.88,61411
1,1530.46,61414
1,1529.04,61411
1,1527.62,61414
1,1526.19,61423
1,1524.77,61397
1,1523.35,61410
1,1521.93,61411
1,1520.51,61407
1,1519.08,61405
1,1517.66,61414
1,1516.24,61413
1,1514.81,61396
1,1513.39,61417
1,1511.96,61422
1,1510.54,61412
1,1509.11,61402
1,1507.69,61413
1,1506.26,61409
1,1504.84,61417
1,1503.41,61396
1,1501.98,61408
1,1500.56,61406
1,1499.13,61424
1,1497.7,61403
1,1496.28,61415
1,1494.85,61420
1,1493.42,61422
1,1491.99,61425
1,1490.56,61398
1,1489.13,61412
1,1487.71,61412
1,1486.28,61420
1,1484.85,61422
1,1483.42,61382
1,1481.99,61394
1,1480.55,61431
1,1479.12,61408
1,1477.69,61411
1,1476.26,61409
1,1474.83,61392
1,1473.4,61412
1,1471.96,61404
1,1470.53,61404
1,1469.1,61412
1,1467.67,61392
1,1466.23,61406
1,1464.8,61421
1,1463.36,61422
1,1461.93,61403
1,1460.5,61407
1,1459.06,61403
1,1457.63,61407
1,1456.19,61412
1,1454.75,61402
1,1453.32,61400
1,1451.88,61394
1,1450.44,61396
1,1449.01,61419
1,1447.57,61412
1,1446.13,61409
1,1444.7,61410
1,1443.26,61403
1,1441.82,61414
1,1440.38,61405
1,1438.94,61401
1,1437.5,61413
1,1436.06,61408
1,1434.62,61418
1,1433.18,61422
1,1431.74,61416
1,1430.3,61390
1,1428.86,61415
1,1427.42,61409
1,1425.98,61405
1,1424.54,61414
1,1423.09,61409
1,1421.65,61404
1,1420.21,61426
1,1418.77,61416
1,1417.32,61413
1,1415.88,61426
1,1414.43,61428
1,1412.99,61410
1,1411.55,61409
1,1410.1,61416
1,1408.66,61405
1,1407.21,61408
1,1405.76,61408
1,1404.32,61408
1,1402.87,61404
1,1401.43,61403
1,1399.98,61385
1,1398.53,61406
1,1397.09,61405
1,1395.64,61411
1,1394.19,61408
1,1392.74,61401
1,1391.29,61399
1,1389.84,61397
1,1388.39,61431
1,1386.95,61413
1,1385.5,61388
1,1384.05,61432
1,1382.6,61404
1,1381.14,61405
1,1379.69,61412
1,1378.24,61404
1,1376.79,61401
1,1375.34,61400
1,1373.89,61415
1,1372.44,61395
1,1370.98,61409
1,1369.53,61409
1,1368.08,61406
1,1366.62,61417
1,1365.17,61401
1,1363.71,61408
1,1362.26,61406
1,1360.81,61401
1,1359.35,61413
1,1357.9,61400
1,1356.44,61422
1,1354.98,61416
1,1353.53,61396
1,1352.07,61405
1,1350.61,61406
1,1349.16,61410
1,1347.7,61412
1,1346.24,61396
1,1344.79,61402
1,1343.33,61403
1,1341.87,61410
1,1340.41,61403
1,1338.95,61399
1,1337.49,61397
1,1336.03,61396
1,1334.57,61414
1,1333.11,61414
1,1331.65,61410
1,1330.19,61422
1,1328.73,61406
1,1327.27,61417
1,1325.81,61409
1,1324.34,61412
1,1322.88,61418
1,1321.42,61413
1,1319.96,61403
1,1318.49,61412
1,1317.03,61411
1,1315.57,61401
1,1314.1,61410
1,1312.64,61396
1,1311.17,61405
1,1309.71,61423
1,1308.24,61406
1,1306.78,61415
1,1305.31,61404
1,1303.84,61414
1,1302.38,61400
1,1300.91,61419
1,1299.44,61410
1,1297.98,61408
1,1296.51,61417
1,1295.04,61403
1,1293.57,61401
1,1292.1,61410
1,1290.64,61404
1,1289.17,61392
1,1287.7,61412
1,1286.23,61404
1,1284.76,61397
1,1283.29,61413
1,1281.82,61401
1,1280.34,61414
1,1278.87,61409
1,1277.4,61410
1,1275.93,61399
1,1274.46,61406
1,1272.99,61416
1,1271.51,61413
1,1270.04,61422
1,1268.57,61417
1,1267.09,61418
1,1265.62,61415
1,1264.14,61411
1,1262.67,61407
1,1261.2,61405
1,1259.72,61402
1,1258.25,61408
1,1256.77,61417
1,1255.29,61404
1,1253.82,61421
1,1252.34,61416
1,1250.86,61407
1,1249.39,61412
1,1247.91,61402
1,1246.43,61408
1,1244.95,61405
1,1243.47,61396
1,1242,61412
1,1240.52,61415
1,1239.04,61394
1,1237.56,61403
1,1236.08,61415
1,1234.6,61412
1,1233.12,61406
1,1231.64,61401
1,1230.16,61423
1,1228.67,61413
1,1227.19,61409
1,1225.71,61409
1,1224.23,61416
1,1222.75,61407
1,1221.26,61407
1,1219.78,61410
1,1218.3,61418
1,1216.81,61417
1,1215.33,61407
1,1213.84,61420
1,1212.36,61407
1,1210.87,61411
1,1209.39,61403
1,1207.9,61421
1,1206.42,61413
1,1204.93,61423
1,1203.44,61403
1,1201.96,61411
1,1200.47,61401
1,1198.98,61398
1,1197.49,61395
1,1196.01,61416
1,1194.52,61409
1,1193.03,61420
1,1191.54,61396
1,1190.05,61394
1,1188.56,61409
1,1187.07,61405
1,1185.58,61393
1,1184.09,61407
1,1182.6,61398
1,1181.11,61411
1,1179.62,61417
1,1178.13,61405
1,1176.63,61396
1,1175.14,61395
1,1173.65,61415
1,1172.16,61402
1,1170.66,61410
1,1169.17,61423
1,1167.68,61417
1,1166.18,61404
1,1164.69,61402
1,1163.19,61407
1,1161.7,61400
1,1160.2,61406
1,1158.71,61413
1,1157.21,61410
1,1155.71,61392
1,1154.22,61401
1,1152.72,61406
1,1151.22,61416
1,1149.73,61419
1,1148.23,61419
1,1146.73,61418
1,1145.23,61405
1,1143.73,61410
1,1142.23,61399
1,1140.73,61413
1,1139.23,61409
1,1137.73,61392
1,1136.23,61410
1,1134.73,61413
1,1133.23,61395
1,1131.73,61405
1,1130.23,61401
1,1128.73,61409
1,1127.23,61408
1,1125.72,61386
1,1124.22,61403
1,1122.72,61406
1,1121.21,61421
1,1119.71,61401
1,1118.21,61417
1,1116.7,61412
1,1115.2,61406
1,1113.69,61400
1,1112.19,61402
1,1110.68,61410
1,1109.18,61401
1,1107.67,61393
1,1106.16,61430
1,1104.66,61402
1,1103.15,61392
1,1101.64,61416
1,1100.14,61406
1,1098.63,61396
1,1097.12,61412
1,1095.61,61420
1,1094.1,61406
1,1092.59,61392
1,1091.08,61409
1,1089.57,61394
1,1088.06,61404
1,1086.55,61406
1,1085.04,61413
1,1083.53,61411
1,1082.02,61414
1,1080.51,61403
1,1079,61402
1,1077.48,61406
1,1075.97,61400
1,1074.46,61410
1,1072.94,61418
1,1071.43,61400
1,1069.92,61404
1,1068.4,61401
1,1066.89,61393
1,1065.37,61413
1,1063.86,61409
1,1062.34,61390
1,1060.83,61407
1,1059.31,61404
1,1057.8,61410
1,1056.28,61405
1,1054.76,61413
1,1053.24,61394
1,1051.73,61419
1,1050.21,61416
1,1048.69,61402
1,1047.17,61413
1,1045.65,61403
1,1044.13,61401
1,1042.61,61417
1,1041.09,61418
1,1039.57,61416
1,1038.05,61413
1,1036.53,61411
1,1035.01,61396
1,1033.49,61418
1,1031.97,61407
1,1030.45,61392
1,1028.93,61410
1,1027.4,61423
1,1025.88,61408
1,1024.36,61416
1,1022.83,61404
1,1021.31,61420
1,1019.78,61406
1,1018.26,61412
1,1016.74,61402
1,1015.21,61404
1,1013.68,61412
1,1012.16,61409
1,1010.63,61427
1,1009.11,61406
1,1007.58,61398
1,1006.05,61408
1,1004.53,61407
1,1003,61408
1,1001.47,61411
1,999.942,61403
1,998.413,61410
1,996.884,61406
1,995.355,61397
1,993.825,61401
1,992.296,61395
1,990.765,61406
1,989.235,61401
1,987.704,61419
1,986.173,61397
1,984.642,61400
1,983.11,61396
1,981.578,61404
1,980.045,61404
1,978.513,61416
1,976.98,61422
1,975.446,61409
1,973.913,61414
1,972.379,61405
1,970.844,61404
1,969.31,61422
1,967.775,61418
1,966.24,61419
1,964.704,61414
1,963.168,61403
1,961.632,61421
1,960.095,61413
1,958.559,61392
1,957.021,61418
1,955.484,61417
1,953.946,61398
1,952.408,61423
1,950.87,61408
1,949.331,61421
1,947.792,61407
1,946.253,61416
1,944.713,61412
1,943.173,61415
1,941.632,61415
1,940.092,61403
1,938.551,61397
1,937.01,61393
1,935.468,61418
1,933.926,61415
1,932.384,61406
1,930.841,61417
1,929.298,61414
1,927.755,61411
1,926.211,61416
1,924.668,61419
1,923.123,61398
1,921.579,61418
1,920.034,61413
1,918.489,61413
1,916.944,61401
1,915.398,61409
1,913.852,61420
1,912.305,61412
1,910.758,61404
1,909.211,61400
1,907.664,61406
1,906.116,61405
1,904.568,61413
1,903.02,61422
1,901.471,61408
1,899.922,61420
1,898.373,61393
1,896.823,61412
1,895.273,61408
1,893.723,61415
1,892.172,61392
1,890.621,61407
1,889.07,61412
1,887.519,61418
1,885.967,61415
1,884.415,61419
1,882.862,61414
1,881.309,61405
1,879.756,61416
1,878.202,61405
1,876.649,61421
1,875.094,61406
1,873.54,61419
1,871.985,61409
1,870.43,61393
1,868.875,61419
1,867.319,61408
1,865.763,61409
1,864.206,61413
1,862.649,61401
1,861.092,61409
1,859.535,61415
1,857.977,61406
1,856.419,61414
1,854.861,61394
1,853.302,61402
1,851.743,61417
1,850.184,61403
1,848.624,61420
1,847.064,61385
1,845.504,61415
1,843.943,61424
1,842.382,61401
1,840.821,61393
1,839.259,61405
1,837.697,61411
1,836.135,61409
1,834.572,61425
1,833.009,61408
1,831.446,61420
1,829.882,61413
1,828.319,61423
1,826.754,61408
1,825.19,61407
1,823.625,61410
1,822.06,61408
1,820.494,61393
1,818.928,61405
1,817.362,61418
1,815.795,61404
1,814.229,61414
1,812.661,61411
1,811.094,61413
1,809.526,61411
1,807.958,61419
1,806.389,61402
1,804.821,61385
1,803.251,61416
1,801.682,61415
1,800.112,61421
1,798.542,61409
1,796.971,61406
1,795.401,61409
1,793.83,61409
1,792.258,61394
1,790.686,61406
1,789.114,61401
1,787.542,61392
1,785.969,61403
1,784.396,61397
1,782.822,61396
1,781.249,61404
1,779.675,61412
1,778.1,61409
1,776.525,61401
1,774.95,61421
1,773.375,61407
1,771.799,61419
1,770.223,61410
1,768.647,61433
1,767.07,61410
1,765.493,61402
1,763.915,61410
1,762.338,61410
1,760.76,61418
1,759.181,61405
1,757.603,61407
1,756.023,61410
1,754.444,61403
1,752.864,61409
1,751.284,61419
1,749.704,61400
1,748.123,61413
1,746.542,61399
1,744.961,61423
1,743.379,61403
1,741.797,61414
1,740.215,61413
1,738.632,61402
1,737.049,61401
1,735.466,61410
1,733.882,61409
1,732.298,61398
1,730.713,61409
1,729.129,61416
1,727.544,61400
1,725.958,61396
1,724.373,61415
1,722.787,61404
1,721.2,61409
1,719.614,61408
1,718.027,61411
1,716.439,61408
1,714.851,61411
1,713.263,61406
1,711.675,61405
1,710.086,61416
1,708.497,61392
1,706.908,61408
1,705.318,61406
1,703.728,61411
1,702.138,61405
1,700.547,61414
1,698.956,61399
1,697.365,61419
1,695.773,61424
1,694.181,61393
1,692.588,61395
1,690.996,61404
1,689.403,61410
1,687.809,61415
1,686.215,61416
1,684.621,61402
1,683.027,61405
1,681.432,61400
1,679.837,61418
1,678.242,61412
1,676.646,61408
1,675.05,61403
1,673.453,61405
1,671.857,61393
1,670.26,61402
1,668.662,61409
1,667.064,61420
1,665.466,61416
1,663.868,61408
1,662.269,61413
1,660.67,61408
1,659.07,61418
1,657.471,61413
1,655.87,61400
1,654.27,61410
1,652.669,61409
1,651.068,61405
1,649.466,61415
1,647.865,61418
1,646.262,61413
1,644.66,61405
1,643.057,61409
1,641.454,61394
1,639.85,61404
1,638.247,61403
1,636.642,61407
1,635.038,61406
1,633.433,61394
1,631.828,61394
1,630.222,61422
1,628.616,61411
1,627.01,61425
1,625.403,61402
1,623.796,61413
1,622.189,61415
1,620.582,61412
1,618.974,61415
1,617.365,61412
1,615.757,61411
1,614.148,61417
1,612.538,61416
1,610.929,61414
1,609.319,61413
1,607.708,61407
1,606.098,61420
1,604.487,61402
1,602.875,61402
1,601.264,61411
1,599.652,61413
1,598.039,61412
1,596.426,61415
1,594.813,61392
1,593.2,61394
1,591.586,61413
1,589.972,61418
1,588.358,61408
1,586.743,61410
1,585.128,61416
1,583.512,61420
1,581.897,61401
1,580.28,61403
1,578.664,61412
1,577.047,61399
1,575.43,61397
1,573.812,61414
1,572.194,61410
1,570.576,61403
1,568.958,61401
1,567.339,61412
1,565.72,61414
1,564.1,61395
1,562.48,61406
1,560.86,61418
1,559.239,61414
1,557.618,61410
1,555.997,61396
1,554.375,61392
1,552.753,61421
1,551.131,61410
1,549.508,61388
1,547.885,61407
1,546.262,61421
1,544.638,61398
1,543.014,61411
1,541.389,61401
1,539.765,61415
1,538.14,61413
1,536.514,61415
1,534.888,61415
1,533.262,61420
1,531.636,61415
1,530.009,61406
1,528.382,61413
1,526.754,61401
1,525.126,61411
1,523.498,61409
1,521.869,61398
1,520.24,61417
1,518.611,61407
1,516.982,61419
1,515.352,61417
1,513.721,61414
1,512.091,61413
1,510.46,61414
1,508.828,61403
1,507.197,61413
1,505.565,61403
1,503.932,61397
1,502.299,61401
1,500.666,61403
1,499.033,61410
1,497.399,61416
1,495.765,61405
1,494.13,61400
1,492.496,61391
1,490.86,61395
1,489.225,61388
1,487.589,61402
1,485.953,61411
1,484.316,61410
1,482.679,61388
1,481.042,61410
1,479.404,61421
1,477.766,61422
1,476.128,61421
1,474.489,61418
1,472.85,61414
1,471.211,61401
1,469.571,61419
1,467.931,61397
1,466.29,61411
1,464.65,61399
1,463.008,61394
1,461.367,61417
1,459.725,61392
1,458.083,61404
1,456.44,61400
1,454.797,61411
1,453.154,61420
1,451.511,61406
1,449.867,61414
1,448.222,61402
1,446.578,61410
1,444.933,61398
1,443.287,61405
1,441.642,61423
1,439.995,61408
1,438.349,61408
1,436.702,61419
1,435.055,61415
1,433.408,61399
1,431.76,61403
1,430.112,61401
1,428.463,61415
1,426.814,61404
1,425.165,61398
1,423.515,61413
1,421.865,61410
1,420.215,61414
1,418.564,61393
1,416.913,61422
1,415.262,61396
1,413.61,61408
1,411.958,61408
1,410.306,61419
1,408.653,61416
1,407,61410
1,405.346,61408
1,403.692,61405
1,402.038,61413
1,400.383,61410
1,398.729,61379
1,397.073,61418
1,395.418,61416
1,393.762,61409
1,392.105,61402
1,390.449,61407
1,388.791,61408
1,387.134,61419
1,385.476,61399
1,383.818,61411
1,382.16,61402
1,380.501,61418
1,378.842,61402
1,377.182,61412
1,375.522,61417
1,373.862,61404
1,372.201,61415
1,370.54,61413
1,368.879,61411
1,367.217,61404
1,365.555,61411
1,363.893,61418
1,362.23,61400
1,360.567,61417
1,358.903,61392
1,357.239,61419
1,355.575,61403
1,353.911,61405
1,352.246,61403
1,350.58,61425
1,348.915,61411
1,347.249,61407
1,345.582,61424
1,343.916,61397
1,342.249,61408
1,340.581,61414
1,338.913,61420
1,337.245,61408
1,335.577,61398
1,333.908,61400
1,332.238,61401
1,330.569,61427
1,328.899,61392
1,327.229,61405
1,325.558,61410
1,323.887,61410
1,322.215,61410
1,320.544,61403
1,318.871,61414
1,317.199,61415
1,315.526,61406
1,313.853,61403
1,312.179,61404
1,310.505,61401
1,308.831,61419
1,307.156,61422
1,305.481,61408
1,303.806,61409
1,302.13,61410
1,300.454,61415
1,298.778,61413
1,297.101,61409
1,295.424,61407
1,293.746,61402
1,292.068,61412
1,290.39,61422
1,288.711,61417
1,287.032,61418
1,285.353,61405
1,283.673,61401
1,281.993,61400
1,280.312,61419
1,278.632,61404
1,276.95,61411
1,275.269,61402
1,273.587,61413
1,271.905,61404
1,270.222,61397
1,268.539,61423
1,266.856,61419
1,265.172,61404
1,263.488,61414
1,261.803,61412
1,260.118,61401
1,258.433,61402
1,256.748,61401
1,255.062,61410
1,253.375,61416
1,251.689,61411
1,250.002,61407
1,248.314,61402
1,246.626,61400
1,244.938,61414
1,243.25,61410
1,241.561,61400
1,239.872,61408
1,238.182,61414
1,236.492,61411
1,234.802,61405
1,233.111,61400
1,231.42,61406
1,229.729,61407
1,228.037,61416
1,226.345,61420
1,224.652,61399
1,222.959,61413
1,221.266,61410
1,219.572,61404
1,217.878,61417
1,216.184,61411
1,214.489,61416
1,212.794,61407
1,211.098,61417
1,209.403,61410
1,207.706,61410
1,206.01,61403
1,204.313,61419
1,202.615,61408
1,200.918,61411
1,199.22,61410
1,197.521,61421
1,195.822,61408
1,194.123,61410
1,192.424,61417
1,190.724,61399
1,189.023,61405
1,187.323,61404
1,185.622,61408
1,183.92,61418
1,182.219,61409
1,180.516,61407
1,178.814,61405
1,177.111,61413
1,175.408,61416
1,173.704,61395
1,172,61410
1,170.296,61413
1,168.591,61422
1,166.886,61396
1,165.18,61414
1,163.474,61391
1,161.768,61423
1,160.062,61417
1,158.355,61414
1,156.647,61389
1,154.94,61409
1,153.231,61412
1,151.523,61413
1,149.814,61399
1,148.105,61402
1,146.395,61404
1,144.685,61403
1,142.975,61420
1,141.264,61405
1,139.553,61401
1,137.842,61403
1,136.13,61407
1,134.418,61410
1,132.705,61413
1,130.992,61406
1,129.279,61400
1,127.565,61397
1,125.851,61398
1,124.137,61415
1,122.422,61404
1,120.707,61396
1,118.991,61402
1,117.275,61415
1,115.559,61410
1,113.842,61402
1,112.125,61398
1,110.407,61406
1,108.69,61402
1,106.971,61405
1,105.253,61421
1,103.534,61401
1,101.815,61413
1,100.095,61409
1,98.3747,61411
1,96.6542,61410
1,94.9334,61409
1,93.2122,61421
1,91.4906,61414
1,89.7686,61404
1,88.0462,61407
1,86.3235,61409
1,84.6004,61403
1,82.8769,61391
1,81.153,61398
1,79.4288,61402
1,77.7041,61420
1,75.9791,61403
1,74.2538,61403
1,72.528,61418
1,70.8019,61398
1,69.0753,61409
1,67.3484,61407
1,65.6212,61409
1,63.8935,61409
1,62.1655,61404
1,60.4371,61405
1,58.7083,61398
1,56.9791,61425
1,55.2495,61401
1,53.5196,61404
1,51.7893,61408
1,50.0586,61408
1,48.3275,61407
1,46.5961,61413
1,44.8642,61405
1,43.132,61412
1,41.3994,61406
1,39.6665,61405
1,37.9331,61390
1,36.1994,61405
1,34.4652,61413
1,32.7307,61403
1,30.9958,61411
1,29.2606,61417
1,27.5249,61404
1,25.7889,61405
1,24.0525,61400
1,22.3157,61410
1,20.5785,61408
1,18.841,61410
1,17.103,61414
1,15.3647,61422
1,13.626,61413
1,11.8869,61400
1,10.1474,61396
1,8.40756,61406
1,6.66732,61410
1,4.92669,61405
1,3.18569,61399
1,1.44429,61397
1,-0.297481,61403
1,-2.03964,61400
1,-3.78218,61395
1,-5.52511,61402
1,-7.26843,61397
1,-9.01212,61414
1,-10.7562,61405
1,-12.5007,61408
1,-14.2455,61402
1,-15.9908,61408
1,-17.7364,61405
1,-19.4824,61393
1,-21.2288,61411
1,-22.9756,61406
1,-24.7227,61408
1,-26.4703,61401
1,-28.2182,61406
1,-29.9665,61405
1,-31.7152,61402
1,-33.4643,61419
1,-35.2138,61406
1,-36.9637,61398
1,-38.7139,61400
1,-40.4646,61387
1,-42.2156,61395
1,-43.967,61422
1,-45.7188,61414
1,-47.471,61400
1,-49.2236,61399
1,-50.9765,61390
1,-52.7299,61393
1,-54.4836,61409
1,-56.2378,61399
1,-57.9923,61385
1,-59.7472,61367
1,-61.5025,61331
1,-63.2582,61351
1,-65.0142,61323
1,-66.7707,61680
2,1981.76,61397
2,1980.43,61408
2,1979.09,61425
2,1977.76,61395
2,1976.43,61400
2,1975.09,61412
2,1973.76,61389
2,1972.43,61400
2,1971.09,61395
2,1969.76,61402
2,1968.42,61388
2,1967.09,61397
2,1965.75,61384
2,1964.42,61390
2,1963.08,61404
2,1961.74,61396
2,1960.41,61406
2,1959.07,61391
2,1957.73,61378
2,1956.4,61393
2,1955.06,61407
2,1953.72,61401
2,1952.38,61390
2,1951.04,61394
2,1949.71,61376
2,1948.37,61407
2,1947.03,61399
2,1945.69,61409
2,1944.35,61391
2,1943.01,61403
2,1941.67,61394
2,1940.33,61406
2,1938.99,61396
2,1937.65,61391
2,1936.31,61391
2,1934.97,61384
2,1933.62,61395
2,1932.28,61395
2,1930.94,61398
2,1929.6,61397
2,1928.26,61393
2,1926.91,61416
2,1925.57,61392
2,1924.23,61401
2,1922.88,61406
2,1921.54,61396
2,1920.19,61389
2,1918.85,61404
2,1917.51,61395
2,1916.16,61392
2,1914.82,61392
2,1913.47,61408
2,1912.12,61395
2,1910.78,61403
2,1909.43,61385
2,1908.09,61396
2,1906.74,61405
2,1905.39,61392
2,1904.04,61412
2,1902.7,61389
2,1901.35,61400
2,1900,61402
2,1898.65,61400
2,1897.3,61401
2,1895.95,61388
2,1894.61,61388
2,1893.26,61387
2,1891.91,61402
2,1890.56,61403
2,1889.21,61403
2,1887.86,61388
2,1886.51,61398
2,1885.15,61402
2,1883.8,61406
2,1882.45,61394
2,1881.1,61389
2,1879.75,61398
2,1878.4,61397
2,1877.04,61403
2,1875.69,61404
2,1874.34,61404
2,1872.98,61396
2,1871.63,61373
2,1870.28,61399
2,1868.92,61386
2,1867.57,61390
2,1866.21,61403
2,1864.86,61390
2,1863.5,61409
2,1862.15,61400
2,1860.79,61407
2,1859.44,61399
2,1858.08,61391
2,1856.72,61407
2,1855.37,61392
2,1854.01,61398
2,1852.65,61402
2,1851.29,61399
2,1849.94,61396
2,1848.58,61379
2,1847.22,61399
2,1845.86,61404
2,1844.5,61393
2,1843.14,61391
2,1841.78,61386
2,1840.42,61393
2,1839.06,61392
2,1837.7,61384
2,1836.34,61396
2,1834.98,61383
2,1833.62,61402
2,1832.26,61404
2,1830.9,61388
2,1829.54,61396
2,1828.18,61398
2,1826.81,61396
2,1825.45,61402
2,1824.09,61397
2,1822.73,61390
2,1821.36,61391
2,1820,61389
2,1818.63,61402
2,1817.27,61376
2,1815.91,61398
2,1814.54,61390
2,1813.18,61384
2,1811.81,61400
2,1810.45,61392
2,1809.08,61388
2,1807.71,61407
2,1806.35,61392
2,1804.98,61391
2,1803.61,61387
2,1802.25,61391
2,1800.88,61404
2,1799.51,61390
2,1798.14,61394
2,1796.78,61394
2,1795.41,61403
2,1794.04,61404
2,1792.67,61392
2,1791.3,61381
2,1789.93,61401
2,1788.56,61397
2,1787.19,61387
2,1785.82,61381
2,1784.45,61405
2,1783.08,61405
2,1781.71,61400
2,1780.34,61377
2,1778.96,61387
2,1777.59,61405
2,1776.22,61411
2,1774.85,61408
2,1773.48,61396
2,1772.1,61390
2,1770.73,61380
2,1769.36,61384
2,1767.98,61387
2,1766.61,61394
2,1765.23,61381
2,1763.86,61399
2,1762.48,61388
2,1761.11,61405
2,1759.73,61399
2,1758.36,61390
2,1756.98,61403
2,1755.61,61392
2,1754.23,61389
2,1752.85,61383
2,1751.47,61390
2,1750.1,61395
2,1748.72,61390
2,1747.34,61401
2,1745.96,61393
2,1744.59,61403
2,1743.21,61409
2,1741.83,61395
2,1740.45,61386
2,1739.07,61406
2,1737.69,61382
2,1736.31,61413
2,1734.93,61385
2,1733.55,61384
2,1732.17,61393
2,1730.79,61390
2,1729.41,61398
2,1728.02,61380
2,1726.64,61383
2,1725.26,61382
2,1723.88,61397
2,1722.49,61399
2,1721.11,61397
2,1719.73,61397
2,1718.34,61404
2,1716.96,61392
2,1715.58,61378
2,1714.19,61408
2,1712.81,61388
2,1711.42,61395
2,1710.04,61392
2,1708.65,61390
2,1707.27,61399
2,1705.88,61387
2,1704.49,61395
2,1703.11,61406
2,1701.72,61401
2,1700.33,61387
2,1698.95,61415
2,1697.56,61374
2,1696.17,61404
2,1694.78,61377
2,1693.39,61387
2,1692.01,61405
2,1690.62,61388
2,1689.23,61403
2,1687.84,61388
2,1686.45,61407
2,1685.06,61401
2,1683.67,61387
2,1682.28,61388
2,1680.89,61397
2,1679.49,61394
2,1678.1,61397
2,1676.71,61402
2,1675.32,61404
2,1673.93,61382
2,1672.53,61389
2,1671.14,61397
2,1669.75,61390
2,1668.36,61402
2,1666.96,61379
2,1665.57,61397
2,1664.17,61400
2,1662.78,61396
2,1661.38,61387
2,1659.99,61408
2,1658.59,61385
2,1657.2,61395
2,1655.8,61386
2,1654.41,61408
2,1653.01,61391
2,1651.61,61399
2,1650.22,61405
2,1648.82,61409
2,1647.42,61401
2,1646.02,61403
2,1644.63,61390
2,1643.23,61406
2,1641.83,61399
2,1640.43,61387
2,1639.03,61414
2,1637.63,61400
2,1636.23,61407
2,1634.83,61401
2,1633.43,61383
2,1632.03,61400
2,1630.63,61418
2,1629.23,61411
2,1627.83,61392
2,1626.43,61393
2,1625.02,61402
2,1623.62,61391
2,1622.22,61395
2,1620.82,61390
2,1619.41,61399
2,1618.01,61393
2,1616.61,61396
2,1615.2,61386
2,1613.8,61392
2,1612.39,61402
2,1610.99,61391
2,1609.58,61391
2,1608.18,61413
2,1606.77,61397
2,1605.37,61398
2,1603.96,61389
2,1602.56,61388
2,1601.15,61401
2,1599.74,61401
2,1598.33,61405
2,1596.93,61391
2,1595.52,61403
2,1594.11,61402
2,1592.7,61392
2,1591.29,61403
2,1589.89,61391
2,1588.48,61393
2,1587.07,61397
2,1585.66,61404
2,1584.25,61397
2,1582.84,61414
2,1581.43,61397
2,1580.02,61397
2,1578.6,61410
2,1577.19,61405
2,1575.78,61369
2,1574.37,61402
2,1572.96,61409
2,1571.54,61408
2,1570.13,61397
2,1568.72,61395
2,1567.3,61391
2,1565.89,61388
2,1564.48,61400
2,1563.06,61404
2,1561.65,61404
2,1560.23,61413
2,1558.82,61402
2,1557.4,61404
2,1555.99,61385
2,1554.57,61395
2,1553.16,61407
2,1551.74,61407
2,1550.32,61395
2,1548.91,61399
2,1547.49,61406
2,1546.07,61393
2,1544.65,61396
2,1543.23,61403
2,1541.82,61393
2,1540.4,61391
2,1538.98,61399
2,1537.56,61403
2,1536.14,61397
2,1534.72,61385
2,1533.3,61401
2,1531.88,61388
2,1530.46,61393
2,1529.04,61393
2,1527.62,61414
2,1526.19,61402
2,1524.77,61389
2,1523.35,61385
2,1521.93,61392
2,1520.51,61402
2,1519.08,61393
2,1517.66,61404
2,1516.24,61404
2,1514.81,61418
2,1513.39,61391
2,1511.96,61408
2,1510.54,61411
2,1509.11,61394
2,1507.69,61401
2,1506.26,61385
2,1504.84,61396
2,1503.41,61394
2,1501.98,61396
2,1500.56,61400
2,1499.13,61407
2,1497.7,61405
2,1496.28,61390
2,1494.85,61394
2,1493.42,61390
2,1491.99,61401
2,1490.56,61402
2,1489.13,61396
2,1487.71,61386
2,1486.28,61401
2,1484.85,61383
2,1483.42,61402
2,1481.99,61414
2,1480.55,61406
2,1479.12,61414
2,1477.69,61398
2,1476.26,61401
2,1474.83,61402
2,1473.4,61388
2,1471.96,61400
2,1470.53,61402
2,1469.1,61399
2,1467.67,61401
2,1466.23,61400
2,1464.8,61395
2,1463.36,61412
2,1461.93,61401
2,1460.5,61396
2,1459.06,61389
2,1457.63,61402
2,1456.19,61397
2,1454.75,61401
2,1453.32,61399
2,1451.88,61393
2,1450.44,61395
2,1449.01,61405
2,1447.57,61406
2,1446.13,61416
2,1444.7,61407
2,1443.26,61414
2,1441.82,61403
2,1440.38,61393
2,1438.94,61402
2,1437.5,61402
2,1436.06,61405
2,1434.62,61398
2,1433.18,61396
2,1431.74,61398
2,1430.3,61406
2,1428.86,61393
2,1427.42,61393
2,1425.98,61400
2,1424.54,61394
2,1423.09,61409
2,1421.65,61400
2,1420.21,61415
2,1418.77,61417
2,1417.32,61395
2,1415.88,61414
2,1414.43,61404
2,1412.99,61399
2,1411.55,61406
2,1410.1,61399
2,1408.66,61405
2,1407.21,61395
2,1405.76,61406
2,1404.32,61403
2,1402.87,61406
2,1401.43,61394
2,1399.98,61394
2,1398.53,61396
2,1397.09,61397
2,1395.64,61415
2,1394.19,61391
2,1392.74,61401
2,1391.29,61397
2,1389.84,61414
2,1388.39,61410
2,1386.95,61416
2,1385.5,61413
2,1384.05,61395
2,1382.6,61404
2,1381.14,61398
2,1379.69,61396
2,1378.24,61390
2,1376.79,61400
2,1375.34,61418
2,1373.89,61403
2,1372.44,61398
2,1370.98,61401
2,1369.53,61400
2,1368.08,61400
2,1366.62,61386
2,1365.17,61397
2,1363.71,61403
2,1362.26,61420
2,1360.81,61391
2,1359.35,61399
2,1357.9,61409
2,1356.44,61403
2,1354.98,61396
2,1353.53,61409
2,1352.07,61403
2,1350.61,61396
2,1349.16,61395
2,1347.7,61399
2,1346.24,61393
2,1344.79,61391
2,1343.33,61397
2,1341.87,61391
2,1340.41,61414
2,1338.95,61401
2,1337.49,61387
2,1336.03,61397
2,1334.57,61402
2,1333.11,61380
2,1331.65,61388
2,1330.19,61386
2,1328.73,61406
2,1327.27,61400
2,1325.81,61414
2,1324.34,61407
2,1322.88,61397
2,1321.42,61385
2,1319.96,61407
2,1318.49,61397
2,1317.03,61385
2,1315.57,61405
2,1314.1,61396
2,1312.64,61393
2,1311.17,61397
2,1309.71,61399
2,1308.24,61389
2,1306.78,61402
2,1305.31,61408
2,1303.84,61408
2,1302.38,61408
2,1300.91,61397
2,1299.44,61402
2,1297.98,61399
2,1296.51,61413
2,1295.04,61393
2,1293.57,61398
2,1292.1,61409
2,1290.64,61401
2,1289.17,61405
2,1287.7,61383
2,1286.23,61404
2,1284.76,61398
2,1283.29,61396
2,1281.82,61402
2,1280.34,61401
2,1278.87,61396
2,1277.4,61404
2,1275.93,61387
2,1274.46,61396
2,1272.99,61405
2,1271.51,61394
2,1270.04,61402
2,1268.57,61400
2,1267.09,61411
2,1265.62,61385
2,1264.14,61401
2,1262.67,61410
2,1261.2,61400
2,1259.72,61408
2,1258.25,61407
2,1256.77,61376
2,1255.29,61390
2,1253.82,61402
2,1252.34,61403
2,1250.86,61390
2,1249.39,61395
2,1247.91,61406
2,1246.43,61394
2,1244.95,61415
2,1243.47,61411
2,1242,61404
2,1240.52,61412
2,1239.04,61414
2,1237.56,61405
2,1236.08,61423
2,1234.6,61387
2,1233.12,61397
2,1231.64,61404
2,1230.16,61397
2,1228.67,61403
2,1227.19,61400
2,1225.71,61394
2,1224.23,61398
2,1222.75,61394
2,1221.26,61402
2,1219.78,61409
2,1218.3,61398
2,1216.81,61398
2,1215.33,61393
2,1213.84,61404
2,1212.36,61396
2,1210.87,61401
2,1209.39,61398
2,1207.9,61400
2,1206.42,61407
2,1204.93,61412
2,1203.44,61411
2,1201.96,61396
2,1200.47,61405
2,1198.98,61393
2,1197.49,61401
2,1196.01,61387
2,1194.52,61400
2,1193.03,61389
2,1191.54,61400
2,1190.05,61400
2,1188.56,61409
2,1187.07,61395
2,1185.58,61407
2,1184.09,61403
2,1182.6,61407
2,1181.11,61386
2,1179.62,61402
2,1178.13,61393
2,1176.63,61394
2,1175.14,61403
2,1173.65,61400
2,1172.16,61399
2,1170.66,61409
2,1169.17,61401
2,1167.68,61386
2,1166.18,61411
2,1164.69,61402
2,1163.19,61405
2,1161.7,61390
2,1160.2,61396
2,1158.71,61391
2,1157.21,61402
2,1155.71,61405
2,1154.22,61390
2,1152.72,61386
2,1151.22,61406
2,1149.73,61396
2,1148.23,61408
2,1146.73,61391
2,1145.23,61406
2,1143.73,61404
2,1142.23,61401
2,1140.73,61389
2,1139.23,61395
2,1137.73,61393
2,1136.23,61401
2,1134.73,61385
2,1133.23,61394
2,1131.73,61411
2,1130.23,61392
2,1128.73,61411
2,1127.23,61418
2,1125.72,61393
2,1124.22,61403
2,1122.72,61401
2,1121.21,61395
2,1119.71,61388
2,1118.21,61401
2,1116.7,61407
2,1115.2,61396
2,1113.69,61394
2,1112.19,61396
2,1110.68,61399
2,1109.18,61410
2,1107.67,61399
2,1106.16,61390
2,1104.66,61395
2,1103.15,61399
2,1101.64,61401
2,1100.14,61398
2,1098.63,61393
2,1097.12,61389
2,1095.61,61401
2,1094.1,61392
2,1092.59,61404
2,1091.08,61402
2,1089.57,61387
2,1088.06,61394
2,1086.55,61406
2,1085.04,61397
2,1083.53,61379
2,1082.02,61392
2,1080.51,61395
2,1079,61411
2,1077.48,61397
2,1075.97,61390
2,1074.46,61393
2,1072.94,61390
2,1071.43,61409
2,1069.92,61394
2,1068.4,61408
2,1066.89,61383
2,1065.37,61406
2,1063.86,61401
2,1062.34,61417
2,1060.83,61393
2,1059.31,61393
2,1057.8,61394
2,1056.28,61393
2,1054.76,61402
2,1053.24,61386
2,1051.73,61392
2,1050.21,61393
2,1048.69,61424
2,1047.17,61394
2,1045.65,61411
2,1044.13,61396
2,1042.61,61411
2,1041.09,61391
2,1039.57,61408
2,1038.05,61400
2,1036.53,61405
2,1035.01,61399
2,1033.49,61404
2,1031.97,61398
2,1030.45,61397
2,1028.93,61402
2,1027.4,61384
2,1025.88,61397
2,1024.36,61404
2,1022.83,61410
2,1021.31,61395
2,1019.78,61398
2,1018.26,61391
2,1016.74,61393
2,1015.21,61407
2,1013.68,61400
2,1012.16,61408
2,1010.63,61394
2,1009.11,61391
2,1007.58,61404
2,1006.05,61416
2,1004.53,61397
2,1003,61401
2,1001.47,61397
2,999.942,61385
2,998.413,61391
2,996.884,61395
2,995.355,61405
2,993.825,61404
2,992.296,61396
2,990.765,61409
2,989.235,61401
2,987.704,61396
2,986.173,61398
2,984.642,61414
2,983.11,61388
2,981.578,61399
2,980.045,61423
2,978.513,61393
2,976.98,61408
2,975.446,61412
2,973.913,61389
2,972.379,61391
2,970.844,61396
2,969.31,61403
2,967.775,61401
2,966.24,61396
2,964.704,61408
2,963.168,61385
2,961.632,61387
2,960.095,61394
2,958.559,61389
2,957.021,61403
2,955.484,61402
2,953.946,61396
2,952.408,61386
2,950.87,61395
2,949.331,61407
2,947.792,61396
2,946.253,61396
2,944.713,61387
2,943.173,61401
2,941.632,61387
2,940.092,61398
2,938.551,61406
2,937.01,61408
2,935.468,61388
2,933.926,61406
2,932.384,61391
2,930.841,61373
2,929.298,61395
2,927.755,61410
2,926.211,61407
2,924.668,61406
2,923.123,61391
2,921.579,61402
2,920.034,61405
2,918.489,61404
2,916.944,61396
2,915.398,61402
2,913.852,61399
2,912.305,61393
2,910.758,61397
2,909.211,61412
2,907.664,61396
2,906.116,61400
2,904.568,61407
2,903.02,61413
2,901.471,61381
2,899.922,61390
2,898.373,61378
2,896.823,61395
2,895.273,61398
2,893.723,61402
2,892.172,61401
2,890.621,61403
2,889.07,61391
2,887.519,61404
2,885.967,61411
2,884.415,61419
2,882.862,61413
2,881.309,61403
2,879.756,61390
2,878.202,61398
2,876.649,61398
2,875.094,61398
2,873.54,61401
2,871.985,61409
2,870.43,61382
2,868.875,61408
2,867.319,61400
2,865.763,61406
2,864.206,61410
2,862.649,61398
2,861.092,61387
2,859.535,61405
2,857.977,61404
2,856.419,61405
2,854.861,61398
2,853.302,61391
2,851.743,61395
2,850.184,61395
2,848.624,61391
2,847.064,61391
2,845.504,61406
2,843.943,61391
2,842.382,61401
2,840.821,61404
2,839.259,61414
2,837.697,61409
2,836.135,61404
2,834.572,61410
2,833.009,61392
2,831.446,61378
2,829.882,61386
2,828.319,61397
2,826.754,61402
2,825.19,61387
2,823.625,61393
2,822.06,61381
2,820.494,61404
2,818.928,61397
2,817.362,61405
2,815.795,61397
2,814.229,61415
2,812.661,61408
2,811.094,61386
2,809.526,61398
2,807.958,61405
2,806.389,61393
2,804.821,61403
2,803.251,61405
2,801.682,61409
2,800.112,61414
2,798.542,61415
2,796.971,61396
2,795.401,61405
2,793.83,61390
2,792.258,61393
2,790.686,61402
2,789.114,61400
2,787.542,61397
2,785.969,61392
2,784.396,61409
2,782.822,61406
2,781.249,61407
2,779.675,61412
2,778.1,61372
2,776.525,61393
2,774.95,61409
2,773.375,61406
2,771.799,61397
2,770.223,61398
2,768.647,61389
2,767.07,61396
2,765.493,61406
2,763.915,61392
2,762.338,61411
2,760.76,61400
2,759.181,61401
2,757.603,61406
2,756.023,61389
2,754.444,61414
2,752.864,61398
2,751.284,61399
2,749.704,61396
2,748.123,61398
2,746.542,61399
2,744.961,61396
2,743.379,61403
2,741.797,61404
2,740.215,61395
2,738.632,61418
2,737.049,61390
2,735.466,61396
2,733.882,61404
2,732.298,61396
2,730.713,61406
2,729.129,61384
2,727.544,61395
2,725.958,61412
2,724.373,61390
2,722.787,61404
2,721.2,61393
2,719.614,61391
2,718.027,61398
2,716.439,61407
2,714.851,61407
2,713.263,61397
2,711.675,61404
2,710.086,61387
2,708.497,61412
2,706.908,61398
2,705.318,61398
2,703.728,61394
2,702.138,61398
2,700.547,61398
2,698.956,61404
2,697.365,61396
2,695.773,61403
2,694.181,61404
2,692.588,61407
2,690.996,61402
2,689.403,61409
2,687.809,61400
2,686.215,61409
2,684.621,61399
2,683.027,61403
2,681.432,61404
2,679.837,61393
2,678.242,61422
2,676.646,61380
2,675.05,61421
2,673.453,61407
2,671.857,61425
2,670.26,61398
2,668.662,61403
2,667.064,61410
2,665.466,61409
2,663.868,61404
2,662.269,61399
2,660.67,61412
2,659.07,61405
2,657.471,61387
2,655.87,61413
2,654.27,61399
2,652.669,61396
2,651.068,61393
2,649.466,61409
2,647.865,61407
2,646.262,61395
2,644.66,61394
2,643.057,61407
2,641.454,61405
2,639.85,61379
2,638.247,61388
2,636.642,61389
2,635.038,61406
2,633.433,61416
2,631.828,61402
2,630.222,61401
2,628.616,61417
2,627.01,61397
2,625.403,61403
2,623.796,61387
2,622.189,61401
2,620.582,61403
2,618.974,61398
2,617.365,61402
2,615.757,61407
2,614.148,61390
2,612.538,61402
2,610.929,61407
2,609.319,61395
2,607.708,61393
2,606.098,61402
2,604.487,61404
2,602.875,61406
2,601.264,61395
2,599.652,61385
2,598.039,61400
2,596.426,61392
2,594.813,61405
2,593.2,61409
2,591.586,61397
2,589.972,61401
2,588.358,61384
2,586.743,61410
2,585.128,61401
2,583.512,61398
2,581.897,61404
2,580.28,61406
2,578.664,61398
2,577.047,61391
2,575.43,61403
2,573.812,61395
2,572.194,61393
2,570.576,61402
2,568.958,61387
2,567.339,61401
2,565.72,61400
2,564.1,61396
2,562.48,61400
2,560.86,61395
2,559.239,61403
2,557.618,61404
2,555.997,61401
2,554.375,61400
2,552.753,61392
2,551.131,61397
2,549.508,61390
2,547.885,61389
2,546.262,61398
2,544.638,61400
2,543.014,61396
2,541.389,61397
2,539.765,61396
2,538.14,61385
2,536.514,61405
2,534.888,61385
2,533.262,61403
2,531.636,61397
2,530.009,61396
2,528.382,61405
2,526.754,61404
2,525.126,61388
2,523.498,61394
2,521.869,61402
2,520.24,61402
2,518.611,61408
2,516.982,61390
2,515.352,61392
2,513.721,61402
2,512.091,61392
2,510.46,61400
2,508.828,61400
2,507.197,61420
2,505.565,61412
2,503.932,61406
2,502.299,61395
2,500.666,61402
2,499.033,61391
2,497.399,61408
2,495.765,61406
2,494.13,61398
2,492.496,61387
2,490.86,61404
2,489.225,61397
2,487.589,61394
2,485.953,61394
2,484.316,61402
2,482.679,61410
2,481.042,61403
2,479.404,61402
2,477.766,61402
2,476.128,61417
2,474.489,61402
2,472.85,61397
2,471.211,61401
2,469.571,61387
2,467.931,61403
2,466.29,61391
2,464.65,61402
2,463.008,61399
2,461.367,61395
2,459.725,61401
2,458.083,61402
2,456.44,61392
2,454.797,61401
2,453.154,61405
2,451.511,61407
2,449.867,61415
2,448.222,61398
2,446.578,61402
2,444.933,61400
2,443.287,61416
2,441.642,61389
2,439.995,61405
2,438.349,61409
2,436.702,61398
2,435.055,61399
2,433.408,61393
2,431.76,61387
2,430.112,61397
2,428.463,61393
2,426.814,61394
2,425.165,61400
2,423.515,61395
2,421.865,61407
2,420.215,61406
2,418.564,61401
2,416.913,61399
2,415.262,61388
2,413.61,61406
2,411.958,61416
2,410.306,61394
2,408.653,61399
2,407,61406
2,405.346,61404
2,403.692,61402
2,402.038,61398
2,400.383,61404
2,398.729,61401
2,397.073,61398
2,395.418,61395
2,393.762,61392
2,392.105,61402
2,390.449,61399
2,388.791,61406
2,387.134,61407
2,385.476,61412
2,383.818,61396
2,382.16,61382
2,380.501,61389
2,378.842,61401
2,377.182,61390
2,375.522,61408
2,373.862,61407
2,372.201,61387
2,370.54,61394
2,368.879,61397
2,367.217,61397
2,365.555,61408
2,363.893,61399
2,362.23,61397
2,360.567,61399
2,358.903,61390
2,357.239,61396
2,355.575,61411
2,353.911,61395
2,352.246,61392
2,350.58,61409
2,348.915,61394
2,347.249,61393
2,345.582,61403
2,343.916,61402
2,342.249,61411
2,340.581,61404
2,338.913,61407
2,337.245,61389
2,335.577,61382
2,333.908,61408
2,332.238,61393
2,330.569,61400
2,328.899,61396
2,327.229,61386
2,325.558,61394
2,323.887,61388
2,322.215,61411
2,320.544,61394
2,318.871,61393
2,317.199,61394
2,315.526,61395
2,313.853,61398
2,312.179,61386
2,310.505,61411
2,308.831,61409
2,307.156,61410
2,305.481,61403
2,303.806,61405
2,302.13,61396
2,300.454,61381
2,298.778,61408
2,297.101,61401
2,295.424,61394
2,293.746,61405
2,292.068,61392
2,290.39,61395
2,288.711,61406
2,287.032,61406
2,285.353,61395
2,283.673,61393
2,281.993,61404
2,280.312,61393
2,278.632,61396
2,276.95,61401
2,275.269,61403
2,273.587,61396
2,271.905,61406
2,270.222,61396
2,268.539,61397
2,266.856,61402
2,265.172,61399
2,263.488,61398
2,261.803,61394
2,260.118,61400
2,258.433,61410
2,256.748,61392
2,255.062,61399
2,253.375,61397
2,251.689,61389
2,250.002,61411
2,248.314,61408
2,246.626,61399
2,244.938,61402
2,243.25,61398
2,241.561,61398
2,239.872,61398
2,238.182,61411
2,236.492,61389
2,234.802,61391
2,233.111,61411
2,231.42,61404
2,229.729,61393
2,228.037,61403
2,226.345,61400
2,224.652,61406
2,222.959,61395
2,221.266,61397
2,219.572,61410
2,217.878,61403
2,216.184,61391
2,214.489,61403
2,212.794,61387
2,211.098,61402
2,209.403,61392
2,207.706,61408
2,206.01,61407
2,204.313,61401
2,202.615,61391
2,200.918,61412
2,199.22,61390
2,197.521,61391
2,195.822,61388
2,194.123,61401
2,192.424,61398
2,190.724,61392
2,189.023,61396
2,187.323,61389
2,185.622,61399
2,183.92,61387
2,182.219,61405
2,180.516,61396
2,178.814,61397
2,177.111,61401
2,175.408,61396
2,173.704,61382
2,172,61400
2,170.296,61400
2,168.591,61391
2,166.886,61385
2,165.18,61391
2,163.474,61423
2,161.768,61400
2,160.062,61400
2,158.355,61405
2,156.647,61400
2,154.94,61381
2,153.231,61403
2,151.523,61385
2,149.814,61399
2,148.105,61401
2,146.395,61403
2,144.685,61407
2,142.975,61412
2,141.264,61392
2,139.553,61395
2,137.842,61405
2,136.13,61390
2,134.418,61397
2,132.705,61411
2,130.992,61398
2,129.279,61411
2,127.565,61401
2,125.851,61395
2,124.137,61379
2,122.422,61382
2,120.707,61399
2,118.991,61387
2,117.275,61397
2,115.559,61387
2,113.842,61401
2,112.125,61383
2,110.407,61411
2,108.69,61385
2,106.971,61395
2,105.253,61394
2,103.534,61394
2,101.815,61389
2,100.095,61405
2,98.3747,61397
2,96.6542,61399
2,94.9334,61396
2,93.2122,61390
2,91.4906,61406
2,89.7686,61391
2,88.0462,61398
2,86.3235,61391
2,84.6004,61408
2,82.8769,61402
2,81.153,61397
2,79.4288,61386
2,77.7041,61398
2,75.9791,61393
2,74.2538,61398
2,72.528,61398
2,70.8019,61408
2,69.0753,61402
2,67.3484,61388
2,65.6212,61388
2,63.8935,61394
2,62.1655,61407
2,60.4371,61403
2,58.7083,61402
2,56.9791,61402
2,55.2495,61412
2,53.5196,61396
2,51.7893,61396
2,50.0586,61394
2,48.3275,61396
2,46.5961,61396
2,44.8642,61385
2,43.132,61408
2,41.3994,61399
2,39.6665,61395
2,37.9331,61397
2,36.1994,61392
2,34.4652,61386
2,32.7307,61400
2,30.9958,61394
2,29.2606,61407
2,27.5249,61387
2,25.7889,61397
2,24.0525,61406
2,22.3157,61398
2,20.5785,61420
2,18.841,61401
2,17.103,61391
2,15.3647,61396
2,13.626,61394
2,11.8869,61398
2,10.1474,61410
2,8.40756,61401
2,6.66732,61394
2,4.92669,61401
2,3.18569,61404
2,1.44429,61401
2,-0.297481,61384
2,-2.03964,61402
2,-3.78218,61402
2,-5.52511,61385
2,-7.26843,61414
2,-9.01212,61392
2,-10.7562,61401
2,-12.5007,61399
2,-14.2455,61392
2,-15.9908,61393
2,-17.7364,61377
2,-19.4824,61396
2,-21.2288,61381
2,-22.9756,61406
2,-24.7227,61392
2,-26.4703,61397
2,-28.2182,61394
2,-29.9665,61386
2,-31.7152,61379
2,-33.4643,61412
2,-35.2138,61405
2,-36.9637,61391
2,-38.7139,61393
2,-40.4646,61392
2,-42.2156,61402
2,-43.967,61395
2,-45.7188,61390
2,-47.471,61387
2,-49.2236,61385
2,-50.9765,61384
2,-52.7299,61384
2,-54.4836,61403
2,-56.2378,61387
2,-57.9923,61384
2,-59.7472,61357
2,-61.5025,61306
2,-63.2582,61344
2,-65.0142,61327
2,-66.7707,61677
3,1981.76,61380
3,1980.43,61377
3,1979.09,61393
3,1977.76,61387
3,1976.43,61389
3,1975.09,61398
3,1973.76,61384
3,1972.43,61387
3,1971.09,61386
3,1969.76,61380
3,1968.42,61396
3,1967.09,61398
3,1965.75,61394
3,1964.42,61390
3,1963.08,61379
3,1961.74,61391
3,1960.41,61380
3,1959.07,61390
3,1957.73,61384
3,1956.4,61384
3,1955.06,61380
3,1953.72,61394
3,1952.38,61384
3,1951.04,61385
3,1949.71,61379
3,1948.37,61377
3,1947.03,61372
3,1945.69,61384
3,1944.35,61378
3,1943.01,61388
3,1941.67,61377
3,1940.33,61390
3,1938.99,61383
3,1937.65,61394
3,1936.31,61375
3,1934.97,61374
3,1933.62,61366
3,1932.28,61392
3,1930.94,61400
3,1929.6,61389
3,1928.26,61373
3,1926.91,61387
3,1925.57,61377
3,1924.23,61378
3,1922.88,61390
3,1921.54,61380
3,1920.19,61402
3,1918.85,61377
3,1917.51,61379
3,1916.16,61391
3,1914.82,61387
3,1913.47,61394
3,1912.12,61371
3,1910.78,61383
3,1909.43,61371
3,1908.09,61377
3,1906.74,61371
3,1905.39,61402
3,1904.04,61394
3,1902.7,61390
3,1901.35,61373
3,1900,61383
3,1898.65,61380
3,1897.3,61370
3,1895.95,61393
3,1894.61,61392
3,1893.26,61375
3,1891.91,61372
3,1890.56,61383
3,1889.21,61377
3,1887.86,61381
3,1886.51,61409
3,1885.15,61384
3,1883.8,61381
3,1882.45,61393
3,1881.1,61388
3,1879.75,61374
3,1878.4,61399
3,1877.04,61379
3,1875.69,61386
3,1874.34,61374
3,1872.98,61381
3,1871.63,61372
3,1870.28,61386
3,1868.92,61390
3,1867.57,61406
3,1866.21,61391
3,1864.86,61385
3,1863.5,61380
3,1862.15,61385
3,1860.79,61377
3,1859.44,61378
3,1858.08,61399
3,1856.72,61378
3,1855.37,61395
3,1854.01,61392
3,1852.65,61393
3,1851.29,61388
3,1849.94,61383
3,1848.58,61390
3,1847.22,61386
3,1845.86,61384
3,1844.5,61379
3,1843.14,61378
3,1841.78,61374
3,1840.42,61391
3,1839.06,61383
3,1837.7,61370
3,1836.34,61407
3,1834.98,61381
3,1833.62,61384
3,1832.26,61391
3,1830.9,61375
3,1829.54,61395
3,1828.18,61390
3,1826.81,61378
3,1825.45,61381
3,1824.09,61381
3,1822.73,61381
3,1821.36,61390
3,1820,61383
3,1818.63,61388
3,1817.27,61383
3,1815.91,61388
3,1814.54,61382
3,1813.18,61406
3,1811.81,61387
3,1810.45,61366
3,1809.08,61384
3,1807.71,61384
3,1806.35,61389
3,1804.98,61383
3,1803.61,61370
3,1802.25,61387
3,1800.88,61385
3,1799.51,61380
3,1798.14,61391
3,1796.78,61399
3,1795.41,61377
3,1794.04,61393
3,1792.67,61378
3,1791.3,61372
3,1789.93,61378
3,1788.56,61376
3,1787.19,61398
3,1785.82,61385
3,1784.45,61386
3,1783.08,61363
3,1781.71,61378
3,1780.34,61375
3,1778.96,61382
3,1777.59,61390
3,1776.22,61383
3,1774.85,61382
3,1773.48,61384
3,1772.1,61384
3,1770.73,61390
3,1769.36,61378
3,1767.98,61387
3,1766.61,61388
3,1765.23,61385
3,1763.86,61385
3,1762.48,61392
3,1761.11,61365
3,1759.73,61376
3,1758.36,61374
3,1756.98,61392
3,1755.61,61384
3,1754.23,61380
3,1752.85,61395
3,1751.47,61380
3,1750.1,61392
3,1748.72,61396
3,1747.34,61376
3,1745.96,61394
3,1744.59,61384
3,1743.21,61388
3,1741.83,61375
3,1740.45,61376
3,1739.07,61370
3,1737.69,61372
3,1736.31,61382
3,1734.93,61391
3,1733.55,61390
3,1732.17,61372
3,1730.79,61380
3,1729.41,61388
3,1728.02,61402
3,1726.64,61382
3,1725.26,61367
3,1723.88,61382
3,1722.49,61393
3,1721.11,61383
3,1719.73,61394
3,1718.34,61394
3,1716.96,61375
3,1715.58,61376
3,1714.19,61393
3,1712.81,61380
3,1711.42,61393
3,1710.04,61390
3,1708.65,61392
3,1707.27,61385
3,1705.88,61391
3,1704.49,61380
3,1703.11,61380
3,1701.72,61387
3,1700.33,61388
3,1698.95,61388
3,1697.56,61389
3,1696.17,61381
3,1694.78,61396
3,1693.39,61370
3,1692.01,61397
3,1690.62,61384
3,1689.23,61391
3,1687.84,61373
3,1686.45,61406
3,1685.06,61379
3,1683.67,61413
3,1682.28,61392
3,1680.89,61385
3,1679.49,61389
3,1678.1,61361
3,1676.71,61374
3,1675.32,61384
3,1673.93,61401
3,1672.53,61379
3,1671.14,61376
3,1669.75,61399
3,1668.36,61382
3,1666.96,61387
3,1665.57,61390
3,1664.17,61401
3,1662.78,61394
3,1661.38,61370
3,1659.99,61378
3,1658.59,61375
3,1657.2,61380
3,1655.8,61383
3,1654.41,61394
3,1653.01,61387
3,1651.61,61377
3,1650.22,61391
3,1648.82,61393
3,1647.42,61385
3,1646.02,61388
3,1644.63,61389
3,1643.23,61392
3,1641.83,61380
3,1640.43,61376
3,1639.03,61375
3,1637.63,61386
3,1636.23,61387
3,1634.83,61400
3,1633.43,61405
3,1632.03,61393
3,1630.63,61389
3,1629.23,61384
3,1627.83,61397
3,1626.43,61399
3,1625.02,61384
3,1623.62,61387
3,1622.22,61391
3,1620.82,61394
3,1619.41,61392
3,1618.01,61390
3,1616.61,61381
3,1615.2,61411
3,1613.8,61385
3,1612.39,61375
3,1610.99,61381
3,1609.58,61376
3,1608.18,61381
3,1606.77,61388
3,1605.37,61379
3,1603.96,61397
3,1602.56,61376
3,1601.15,61391
3,1599.74,61374
3,1598.33,61383
3,1596.93,61390
3,1595.52,61400
3,1594.11,61378
3,1592.7,61379
3,1591.29,61381
3,1589.89,61391
3,1588.48,61392
3,1587.07,61385
3,1585.66,61382
3,1584.25,61385
3,1582.84,61383
3,1581.43,61382
3,1580.02,61386
3,1578.6,61385
3,1577.19,61393
3,1575.78,61388
3,1574.37,61382
3,1572.96,61394
3,1571.54,61382
3,1570.13,61382
3,1568.72,61395
3,1567.3,61406
3,1565.89,61394
3,1564.48,61372
3,1563.06,61379
3,1561.65,61392
3,1560.23,61388
3,1558.82,61375
3,1557.4,61377
3,1555.99,61384
3,1554.57,61394
3,1553.16,61396
3,1551.74,61394
3,1550.32,61371
3,1548.91,61380
3,1547.49,61396
3,1546.07,61387
3,1544.65,61376
3,1543.23,61377
3,1541.82,61384
3,1540.4,61388
3,1538.98,61398
3,1537.56,61388
3,1536.14,61392
3,1534.72,61404
3,1533.3,61383
3,1531.88,61385
3,1530.46,61400
3,1529.04,61388
3,1527.62,61384
3,1526.19,61390
3,1524.77,61409
3,1523.35,61383
3,1521.93,61397
3,1520.51,61388
3,1519.08,61382
3,1517.66,61397
3,1516.24,61387
3,1514.81,61387
3,1513.39,61383
3,1511.96,61387
3,1510.54,61393
3,1509.11,61397
3,1507.69,61379
3,1506.26,61379
3,1504.84,61382
3,1503.41,61383
3,1501.98,61398
3,1500.56,61390
3,1499.13,61400
3,1497.7,61392
3,1496.28,61381
3,1494.85,61398
3,1493.42,61385
3,1491.99,61396
3,1490.56,61383
3,1489.13,61371
3,1487.71,61375
3,1486.28,61390
3,1484.85,61388
3,1483.42,61389
3,1481.99,61384
3,1480.55,61381
3,1479.12,61383
3,1477.69,61386
3,1476.26,61379
3,1474.83,61385
3,1473.4,61403
3,1471.96,61385
3,1470.53,61395
3,1469.1,61394
3,1467.67,61387
3,1466.23,61383
3,1464.8,61380
3,1463.36,61396
3,1461.93,61390
3,1460.5,61376
3,1459.06,61373
3,1457.63,61397
3,1456.19,61383
3,1454.75,61396
3,1453.32,61398
3,1451.88,61388
3,1450.44,61389
3,1449.01,61377
3,1447.57,61373
3,1446.13,61374
3,1444.7,61397
3,1443.26,61381
3,1441.82,61381
3,1440.38,61390
3,1438.94,61389
3,1437.5,61374
3,1436.06,61376
3,1434.62,61394
3,1433.18,61379
3,1431.74,61386
3,1430.3,61392
3,1428.86,61392
3,1427.42,61369
3,1425.98,61386
3,1424.54,61403
3,1423.09,61392
3,1421.65,61391
3,1420.21,61386
3,1418.77,61392
3,1417.32,61386
3,1415.88,61380
3,1414.43,61387
3,1412.99,61396
3,1411.55,61396
3,1410.1,61383
3,1408.66,61401
3,1407.21,61386
3,1405.76,61391
3,1404.32,61388
3,1402.87,61386
3,1401.43,61399
3,1399.98,61385
3,1398.53,61395
3,1397.09,61394
3,1395.64,61375
3,1394.19,61403
3,1392.74,61373
3,1391.29,61385
3,1389.84,61397
3,1388.39,61394
3,1386.95,61392
3,1385.5,61386
3,1384.05,61378
3,1382.6,61386
3,1381.14,61378
3,1379.69,61386
3,1378.24,61394
3,1376.79,61392
3,1375.34,61406
3,1373.89,61374
3,1372.44,61386
3,1370.98,61393
3,1369.53,61371
3,1368.08,61396
3,1366.62,61383
3,1365.17,61371
3,1363.71,61377
3,1362.26,61401
3,1360.81,61395
3,1359.35,61371
3,1357.9,61390
3,1356.44,61391
3,1354.98,61396
3,1353.53,61375
3,1352.07,61396
3,1350.61,61394
3,1349.16,61391
3,1347.7,61393
3,1346.24,61385
3,1344.79,61402
3,1343.33,61387
3,1341.87,61389
3,1340.41,61382
3,1338.95,61385
3,1337.49,61372
3,1336.03,61389
3,1334.57,61385
3,1333.11,61389
3,1331.65,61392
3,1330.19,61389
3,1328.73,61380
3,1327.27,61397
3,1325.81,61395
3,1324.34,61381
3,1322.88,61389
3,1321.42,61386
3,1319.96,61383
3,1318.49,61394
3,1317.03,61408
3,1315.57,61395
3,1314.1,61375
3,1312.64,61380
3,1311.17,61374
3,1309.71,61389
3,1308.24,61386
3,1306.78,61394
3,1305.31,61392
3,1303.84,61400
3,1302.38,61397
3,1300.91,61397
3,1299.44,61378
3,1297.98,61393
3,1296.51,61397
3,1295.04,61381
3,1293.57,61381
3,1292.1,61376
3,1290.64,61392
3,1289.17,61379
3,1287.7,61387
3,1286.23,61386
3,1284.76,61387
3,1283.29,61387
3,1281.82,61381
3,1280.34,61394
3,1278.87,61375
3,1277.4,61387
3,1275.93,61388
3,1274.46,61393
3,1272.99,61389
3,1271.51,61385
3,1270.04,61397
3,1268.57,61370
3,1267.09,61381
3,1265.62,61396
3,1264.14,61387
3,1262.67,61394
3,1261.2,61384
3,1259.72,61397
3,1258.25,61376
3,1256.77,61373
3,1255.29,61400
3,1253.82,61397
3,1252.34,61387
3,1250.86,61404
3,1249.39,61386
3,1247.91,61382
3,1246.43,61388
3,1244.95,61374
3,1243.47,61394
3,1242,61397
3,1240.52,61372
3,1239.04,61386
3,1237.56,61386
3,1236.08,61392
3,1234.6,61405
3,1233.12,61368
3,1231.64,61379
3,1230.16,61387
3,1228.67,61373
3,1227.19,61394
3,1225.71,61396
3,1224.23,61390
3,1222.75,61382
3,1221.26,61388
3,1219.78,61371
3,1218.3,61391
3,1216.81,61409
3,1215.33,61385
3,1213.84,61382
3,1212.36,61384
3,1210.87,61391
3,1209.39,61391
3,1207.9,61393
3,1206.42,61388
3,1204.93,61396
3,1203.44,61394
3,1201.96,61386
3,1200.47,61394
3,1198.98,61400
3,1197.49,61390
3,1196.01,61402
3,1194.52,61378
3,1193.03,61399
3,1191.54,61390
3,1190.05,61389
3,1188.56,61383
3,1187.07,61365
3,1185.58,61371
3,1184.09,61385
3,1182.6,61390
3,1181.11,61391
3,1179.62,61395
3,1178.13,61385
3,1176.63,61392
3,1175.14,61386
3,1173.65,61371
3,1172.16,61385
3,1170.66,61390
3,1169.17,61387
3,1167.68,61393
3,1166.18,61370
3,1164.69,61397
3,1163.19,61395
3,1161.7,61392
3,1160.2,61388
3,1158.71,61384
3,1157.21,61391
3,1155.71,61385
3,1154.22,61385
3,1152.72,61398
3,1151.22,61389
3,1149.73,61392
3,1148.23,61381
3,1146.73,61378
3,1145.23,61384
3,1143.73,61379
3,1142.23,61377
3,1140.73,61392
3,1139.23,61391
3,1137.73,61404
3,1136.23,61387
3,1134.73,61387
3,1133.23,61385
3,1131.73,61375
3,1130.23,61383
3,1128.73,61386
3,1127.23,61389
3,1125.72,61385
3,1124.22,61389
3,1122.72,61381
3,1121.21,61391
3,1119.71,61383
3,1118.21,61386
3,1116.7,61391
3,1115.2,61387
3,1113.69,61384
3,1112.19,61378
3,1110.68,61379
3,1109.18,61397
3,1107.67,61398
3,1106.16,61393
3,1104.66,61394
3,1103.15,61388
3,1101.64,61391
3,1100.14,61398
3,1098.63,61399
3,1097.12,61385
3,1095.61,61394
3,1094.1,61381
3,1092.59,61380
3,1091.08,61392
3,1089.57,61390
3,1088.06,61382
3,1086.55,61378
3,1085.04,61398
3,1083.53,61387
3,1082.02,61392
3,1080.51,61394
3,1079,61375
3,1077.48,61392
3,1075.97,61389
3,1074.46,61393
3,1072.94,61389
3,1071.43,61385
3,1069.92,61380
3,1068.4,61406
3,1066.89,61380
3,1065.37,61363
3,1063.86,61390
3,1062.34,61385
3,1060.83,61387
3,1059.31,61400
3,1057.8,61392
3,1056.28,61385
3,1054.76,61381
3,1053.24,61389
3,1051.73,61383
3,1050.21,61393
3,1048.69,61373
3,1047.17,61394
3,1045.65,61390
3,1044.13,61375
3,1042.61,61390
3,1041.09,61384
3,1039.57,61402
3,1038.05,61396
3,1036.53,61387
3,1035.01,61386
3,1033.49,61377
3,1031.97,61363
3,1030.45,61386
3,1028.93,61391
3,1027.4,61377
3,1025.88,61397
3,1024.36,61382
3,1022.83,61400
3,1021.31,61388
3,1019.78,61377
3,1018.26,61385
3,1016.74,61373
3,1015.21,61394
3,1013.68,61389
3,1012.16,61414
3,1010.63,61402
3,1009.11,61393
3,1007.58,61379
3,1006.05,61397
3,1004.53,61383
3,1003,61404
3,1001.47,61387
3,999.942,61391
3,998.413,61369
3,996.884,61386
3,995.355,61392
3,993.825,61390
3,992.296,61397
3,990.765,61377
3,989.235,61382
3,987.704,61387
3,986.173,61377
3,984.642,61390
3,983.11,61393
3,981.578,61373
3,980.045,61389
3,978.513,61380
3,976.98,61380
3,975.446,61386
3,973.913,61377
3,972.379,61387
3,970.844,61393
3,969.31,61381
3,967.775,61374
3,966.24,61383
3,964.704,61396
3,963.168,61386
3,961.632,61373
3,960.095,61404
3,958.559,61400
3,957.021,61401
3,955.484,61392
3,953.946,61372
3,952.408,61402
3,950.87,61401
3,949.331,61394
3,947.792,61399
3,946.253,61382
3,944.713,61396
3,943.173,61393
3,941.632,61399
3,940.092,61391
3,938.551,61402
3,937.01,61389
3,935.468,61378
3,933.926,61392
3,932.384,61379
3,930.841,61386
3,929.298,61399
3,927.755,61391
3,926.211,61396
3,924.668,61380
3,923.123,61384
3,921.579,61380
3,920.034,61379
3,918.489,61389
3,916.944,61380
3,915.398,61392
3,913.852,61386
3,912.305,61387
3,910.758,61382
3,909.211,61383
3,907.664,61379
3,906.116,61383
3,904.568,61384
3,903.02,61378
3,901.471,61386
3,899.922,61395
3,898.373,61389
3,896.823,61389
3,895.273,61384
3,893.723,61399
3,892.172,61380
3,890.621,61392
3,889.07,61397
3,887.519,61374
3,885.967,61370
3,884.415,61369
3,882.862,61378
3,881.309,61394
3,879.756,61387
3,878.202,61382
3,876.649,61409
3,875.094,61379
3,873.54,61380
3,871.985,61380
3,870.43,61380
3,868.875,61389
3,867.319,61382
3,865.763,61372
3,864.206,61391
3,862.649,61380
3,861.092,61394
3,859.535,61377
3,857.977,61383
3,856.419,61385
3,854.861,61384
3,853.302,61388
3,851.743,61384
3,850.184,61387
3,848.624,61384
3,847.064,61384
3,845.504,61381
3,843.943,61390
3,842.382,61404
3,840.821,61386
3,839.259,61366
3,837.697,61387
3,836.135,61393
3,834.572,61381
3,833.009,61380
3,831.446,61395
3,829.882,61368
3,828.319,61394
3,826.754,61402
3,825.19,61394
3,823.625,61398
3,822.06,61401
3,820.494,61376
3,818.928,61402
3,817.362,61393
3,815.795,61380
3,814.229,61383
3,812.661,61385
3,811.094,61390
3,809.526,61383
3,807.958,61369
3,806.389,61396
3,804.821,61384
3,803.251,61398
3,801.682,61375
3,800.112,61400
3,798.542,61377
3,796.971,61399
3,795.401,61388
3,793.83,61392
3,792.258,61377
3,790.686,61384
3,789.114,61373
3,787.542,61403
3,785.969,61387
3,784.396,61384
3,782.822,61387
3,781.249,61398
3,779.675,61364
3,778.1,61395
3,776.525,61390
3,774.95,61386
3,773.375,61375
3,771.799,61384
3,770.223,61404
3,768.647,61371
3,767.07,61388
3,765.493,61369
3,763.915,61375
3,762.338,61393
3,760.76,61393
3,759.181,61396
3,757.603,61382
3,756.023,61380
3,754.444,61397
3,752.864,61380
3,751.284,61376
3,749.704,61397
3,748.123,61389
3,746.542,61397
3,744.961,61399
3,743.379,61380
3,741.797,61383
3,740.215,61381
3,738.632,61382
3,737.049,61396
3,735.466,61380
3,733.882,61382
3,732.298,61395
3,730.713,61389
3,729.129,61384
3,727.544,61391
3,725.958,61372
3,724.373,61382
3,722.787,61399
3,721.2,61392
3,719.614,61389
3,718.027,61382
3,716.439,61389
3,714.851,61382
3,713.263,61405
3,711.675,61389
3,710.086,61397
3,708.497,61399
3,706.908,61404
3,705.318,61385
3,703.728,61398
3,702.138,61368
3,700.547,61390
3,698.956,61394
3,697.365,61385
3,695.773,61397
3,694.181,61387
3,692.588,61397
3,690.996,61385
3,689.403,61386
3,687.809,61385
3,686.215,61387
3,684.621,61376
3,683.027,61395
3,681.432,61377
3,679.837,61400
3,678.242,61380
3,676.646,61387
3,675.05,61387
3,673.453,61391
3,671.857,61386
3,670.26,61385
3,668.662,61384
3,667.064,61377
3,665.466,61388
3,663.868,61390
3,662.269,61370
3,660.67,61386
3,659.07,61404
3,657.471,61402
3,655.87,61379
3,654.27,61391
3,652.669,61380
3,651.068,61387
3,649.466,61389
3,647.865,61381
3,646.262,61387
3,644.66,61383
3,643.057,61389
3,641.454,61393
3,639.85,61392
3,638.247,61391
3,636.642,61385
3,635.038,61395
3,633.433,61392
3,631.828,61380
3,630.222,61392
3,628.616,61394
3,627.01,61383
3,625.403,61388
3,623.796,61383
3,622.189,61396
3,620.582,61393
3,618.974,61398
3,617.365,61386
3,615.757,61396
3,614.148,61378
3,612.538,61383
3,610.929,61382
3,609.319,61385
3,607.708,61384
3,606.098,61403
3,604.487,61383
3,602.875,61389
3,601.264,61398
3,599.652,61382
3,598.039,61382
3,596.426,61398
3,594.813,61383
3,593.2,61391
3,591.586,61389
3,589.972,61388
3,588.358,61377
3,586.743,61377
3,585.128,61386
3,583.512,61380
3,581.897,61395
3,580.28,61397
3,578.664,61394
3,577.047,61384
3,575.43,61367
3,573.812,61391
3,572.194,61379
3,570.576,61393
3,568.958,61381
3,567.339,61391
3,565.72,61379
3,564.1,61381
3,562.48,61381
3,560.86,61393
3,559.239,61383
3,557.618,61394
3,555.997,61392
3,554.375,61396
3,552.753,61384
3,551.131,61401
3,549.508,61380
3,547.885,61380
3,546.262,61398
3,544.638,61365
3,543.014,61375
3,541.389,61397
3,539.765,61395
3,538.14,61378
3,536.514,61389
3,534.888,61378
3,533.262,61379
3,531.636,61384
3,530.009,61372
3,528.382,61373
3,526.754,61383
3,525.126,61385
3,523.498,61387
3,521.869,61369
3,520.24,61389
3,518.611,61385
3,516.982,61377
3,515.352,61400
3,513.721,61383
3,512.091,61399
3,510.46,61390
3,508.828,61374
3,507.197,61387
3,505.565,61402
3,503.932,61379
3,502.299,61388
3,500.666,61384
3,499.033,61371
3,497.399,61388
3,495.765,61372
3,494.13,61392
3,492.496,61377
3,490.86,61400
3,489.225,61392
3,487.589,61367
3,485.953,61385
3,484.316,61377
3,482.679,61373
3,481.042,61393
3,479.404,61377
3,477.766,61391
3,476.128,61373
3,474.489,61388
3,472.85,61392
3,471.211,61383
3,469.571,61389
3,467.931,61378
3,466.29,61398
3,464.65,61388
3,463.008,61403
3,461.367,61400
3,459.725,61389
3,458.083,61397
3,456.44,61377
3,454.797,61385
3,453.154,61401
3,451.511,61368
3,449.867,61403
3,448.222,61394
3,446.578,61393
3,444.933,61391
3,443.287,61402
3,441.642,61397
3,439.995,61390
3,438.349,61381
3,436.702,61369
3,435.055,61387
3,433.408,61389
3,431.76,61387
3,430.112,61404
3,428.463,61375
3,426.814,61379
3,425.165,61396
3,423.515,61384
3,421.865,61393
3,420.215,61397
3,418.564,61383
3,416.913,61394
3,415.262,61394
3,413.61,61392
3,411.958,61380
3,410.306,61389
3,408.653,61389
3,407,61397
3,405.346,61398
3,403.692,61381
3,402.038,61386
3,400.383,61386
3,398.729,61392
3,397.073,61395
3,395.418,61389
3,393.762,61390
3,392.105,61379
3,390.449,61393
3,388.791,61388
3,387.134,61389
3,385.476,61385
3,383.818,61399
3,382.16,61384
3,380.501,61378
3,378.842,61384
3,377.182,61389
3,375.522,61388
3,373.862,61383
3,372.201,61388
3,370.54,61390
3,368.879,61385
3,367.217,61389
3,365.555,61390
3,363.893,61398
3,362.23,61374
3,360.567,61398
3,358.903,61390
3,357.239,61394
3,355.575,61385
3,353.911,61389
3,352.246,61388
3,350.58,61383
3,348.915,61403
3,347.249,61391
3,345.582,61381
3,343.916,61380
3,342.249,61386
3,340.581,61388
3,338.913,61399
3,337.245,61393
3,335.577,61375
3,333.908,61396
3,332.238,61367
3,330.569,61394
3,328.899,61383
3,327.229,61380
3,325.558,61386
3,323.887,61389
3,322.215,61394
3,320.544,61399
3,318.871,61371
3,317.199,61382
3,315.526,61373
3,313.853,61391
3,312.179,61382
3,310.505,61383
3,308.831,61383
3,307.156,61390
3,305.481,61390
3,303.806,61386
3,302.13,61396
3,300.454,61376
3,298.778,61395
3,297.101,61397
3,295.424,61388
3,293.746,61376
3,292.068,61392
3,290.39,61395
3,288.711,61386
3,287.032,61383
3,285.353,61396
3,283.673,61382
3,281.993,61386
3,280.312,61377
3,278.632,61374
3,276.95,61390
3,275.269,61388
3,273.587,61399
3,271.905,61373
3,270.222,61377
3,268.539,61389
3,266.856,61403
3,265.172,61392
3,263.488,61386
3,261.803,61374
3,260.118,61386
3,258.433,61393
3,256.748,61384
3,255.062,61391
3,253.375,61386
3,251.689,61385
3,250.002,61363
3,248.314,61386
3,246.626,61382
3,244.938,61396
3,243.25,61381
3,241.561,61380
3,239.872,61376
3,238.182,61386
3,236.492,61384
3,234.802,61365
3,233.111,61394
3,231.42,61391
3,229.729,61382
3,228.037,61382
3,226.345,61399
3,224.652,61397
3,222.959,61390
3,221.266,61386
3,219.572,61387
3,217.878,61376
3,216.184,61383
3,214.489,61398
3,212.794,61397
3,211.098,61383
3,209.403,61387
3,207.706,61383
3,206.01,61397
3,204.313,61387
3,202.615,61384
3,200.918,61382
3,199.22,61390
3,197.521,61388
3,195.822,61398
3,194.123,61376
3,192.424,61384
3,190.724,61378
3,189.023,61396
3,187.323,61391
3,185.622,61382
3,183.92,61381
3,182.219,61376
3,180.516,61376
3,178.814,61392
3,177.111,61386
3,175.408,61395
3,173.704,61391
3,172,61378
3,170.296,61381
3,168.591,61378
3,166.886,61384
3,165.18,61394
3,163.474,61387
3,161.768,61388
3,160.062,61386
3,158.355,61386
3,156.647,61385
3,154.94,61395
3,153.231,61389
3,151.523,61392
3,149.814,61381
3,148.105,61386
3,146.395,61390
3,144.685,61375
3,142.975,61393
3,141.264,61379
3,139.553,61391
3,137.842,61397
3,136.13,61394
3,134.418,61395
3,132.705,61380
3,130.992,61370
3,129.279,61384
3,127.565,61368
3,125.851,61380
3,124.137,61392
3,122.422,61373
3,120.707,61391
3,118.991,61383
3,117.275,61394
3,115.559,61382
3,113.842,61370
3,112.125,61364
3,110.407,61376
3,108.69,61389
3,106.971,61390
3,105.253,61389
3,103.534,61375
3,101.815,61396
3,100.095,61392
3,98.3747,61390
3,96.6542,61390
3,94.9334,61368
3,93.2122,61381
3,91.4906,61389
3,89.7686,61379
3,88.0462,61389
3,86.3235,61400
3,84.6004,61390
3,82.8769,61386
3,81.153,61388
3,79.4288,61396
3,77.7041,61382
3,75.9791,61376
3,74.2538,61365
3,72.528,61390
3,70.8019,61379
3,69.0753,61393
3,67.3484,61384
3,65.6212,61385
3,63.8935,61387
3,62.1655,61371
3,60.4371,61390
3,58.7083,61388
3,56.9791,61375
3,55.2495,61378
3,53.5196,61379
3,51.7893,61376
3,50.0586,61403
3,48.3275,61382
3,46.5961,61384
3,44.8642,61389
3,43.132,61380
3,41.3994,61381
3,39.6665,61389
3,37.9331,61381
3,36.1994,61400
3,34.4652,61384
3,32.7307,61378
3,30.9958,61386
3,29.2606,61379
3,27.5249,61377
3,25.7889,61388
3,24.0525,61386
3,22.3157,61392
3,20.5785,61377
3,18.841,61378
3,17.103,61360
3,15.3647,61390
3,13.626,61387
3,11.8869,61383
3,10.1474,61398
3,8.40756,61398
3,6.66732,61378
3,4.92669,61387
3,3.18569,61384
3,1.44429,61400
3,-0.297481,61389
3,-2.03964,61380
3,-3.78218,61385
3,-5.52511,61410
3,-7.26843,61381
3,-9.01212,61394
3,-10.7562,61385
3,-12.5007,61382
3,-14.2455,61386
3,-15.9908,61381
3,-17.7364,61386
3,-19.4824,61384
3,-21.2288,61379
3,-22.9756,61382
3,-24.7227,61382
3,-26.4703,61400
3,-28.2182,61377
3,-29.9665,61383
3,-31.7152,61390
3,-33.4643,61401
3,-35.2138,61388
3,-36.9637,61381
3,-38.7139,61380
3,-40.4646,61374
3,-42.2156,61399
3,-43.967,61408
3,-45.7188,61390
3,-47.471,61379
3,-49.2236,61369
3,-50.9765,61398
3,-52.7299,61388
3,-54.4836,61381
3,-56.2378,61358
3,-57.9923,61376
3,-59.7472,61346
3,-61.5025,61300
3,-63.2582,61336
3,-65.0142,61285
3,-66.7707,61663
