1,1981.76,61420
1,1980.43,61438
1,1979.09,61457
1,1977.76,61431
1,1976.43,61420
1,1975.09,61432
1,1973.76,61418
1,1972.43,61447
1,1971.09,61447
1,1969.76,61424
1,1968.42,61417
1,1967.09,61431
1,1965.75,61433
1,1964.42,61430
1,1963.08,61447
1,1961.74,61434
1,1960.41,61439
1,1959.07,61441
1,1957.73,61435
1,1956.4,61441
1,1955.06,61416
1,1953.72,61419
1,1952.38,61444
1,1951.04,61441
1,1949.71,61444
1,1948.37,61426
1,1947.03,61442
1,1945.69,61431
1,1944.35,61424
1,1943.01,61431
1,1941.67,61442
1,1940.33,61411
1,1938.99,61426
1,1937.65,61422
1,1936.31,61422
1,1934.97,61439
1,1933.62,61426
1,1932.28,61434
1,1930.94,61426
1,1929.6,61437
1,1928.26,61418
1,1926.91,61435
1,1925.57,61440
1,1924.23,61434
1,1922.88,61430
1,1921.54,61442
1,1920.19,61436
1,1918.85,61423
1,1917.51,61441
1,1916.16,61429
1,1914.82,61440
1,1913.47,61443
1,1912.12,61417
1,1910.78,61425
1,1909.43,61440
1,1908.09,61443
1,1906.74,61431
1,1905.39,61414
1,1904.04,61443
1,1902.7,61424
1,1901.35,61417
1,1900,61431
1,1898.65,61448
1,1897.3,61427
1,1895.95,61420
1,1894.61,61421
1,1893.26,61437
1,1891.91,61419
1,1890.56,61423
1,1889.21,61431
1,1887.86,61451
1,1886.51,61427
1,1885.15,61439
1,1883.8,61448
1,1882.45,61438
1,1881.1,61438
1,1879.75,61429
1,1878.4,61436
1,1877.04,61441
1,1875.69,61437
1,1874.34,61421
1,1872.98,61427
1,1871.63,61423
1,1870.28,61434
1,1868.92,61453
1,1867.57,61435
1,1866.21,61432
1,1864.86,61440
1,1863.5,61424
1,1862.15,61436
1,1860.79,61413
1,1859.44,61440
1,1858.08,61447
1,1856.72,61426
1,1855.37,61437
1,1854.01,61448
1,1852.65,61430
1,1851.29,61429
1,1849.94,61444
1,1848.58,61453
1,1847.22,61431
1,1845.86,61439
1,1844.5,61414
1,1843.14,61438
1,1841.78,61425
1,1840.42,61415
1,1839.06,61423
1,1837.7,61432
1,1836.34,61426
1,1834.98,61437
1,1833.62,61429
1,1832.26,61425
1,1830.9,61426
1,1829.54,61426
1,1828.18,61445
1,1826.81,61424
1,1825.45,61447
1,1824.09,61422
1,1822.73,61425
1,1821.36,61416
1,1820,61433
1,1818.63,61429
1,1817.27,61437
1,1815.91,61422
1,1814.54,61421
1,1813.18,61428
1,1811.81,61424
1,1810.45,61418
1,1809.08,61435
1,1807.71,61437
1,1806.35,61418
1,1804.98,61435
1,1803.61,61421
1,1802.25,61444
1,1800.88,61420
1,1799.51,61417
1,1798.14,61425
1,1796.78,61425
1,1795.41,61424
1,1794.04,61431
1,1792.67,61421
1,1791.3,61418
1,1789.93,61436
1,1788.56,61430
1,1787.19,61411
1,1785.82,61430
1,1784.45,61412
1,1783.08,61429
1,1781.71,61420
1,1780.34,61428
1,1778.96,61421
1,1777.59,61423
1,1776.22,61427
1,1774.85,61422
1,1773.48,61424
1,1772.1,61417
1,1770.73,61428
1,1769.36,61423
1,1767.98,61422
1,1766.61,61408
1,1765.23,61437
1,1763.86,61428
1,1762.48,61420
1,1761.11,61424
1,1759.73,61421
1,1758.36,61437
1,1756.98,61427
1,1755.61,61421
1,1754.23,61435
1,1752.85,61431
1,1751.47,61418
1,1750.1,61418
1,1748.72,61421
1,1747.34,61423
1,1745.96,61414
1,1744.59,61434
1,1743.21,61435
1,1741.83,61420
1,1740.45,61411
1,1739.07,61425
1,1737.69,61422
1,1736.31,61412
1,1734.93,61428
1,1733.55,61425
1,1732.17,61416
1,1730.79,61432
1,1729.41,61423
1,1728.02,61418
1,1726.64,61426
1,1725.26,61417
1,1723.88,61425
1,1722.49,61416
1,1721.11,61425
1,1719.73,61424
1,1718.34,61406
1,1716.96,61425
1,1715.58,61422
1,1714.19,61430
1,1712.81,61418
1,1711.42,61424
1,1710.04,61427
1,1708.65,61423
1,1707.27,61424
1,1705.88,61417
1,1704.49,61432
1,1703.11,61418
1,1701.72,61417
1,1700.33,61421
1,1698.95,61419
1,1697.56,61433
1,1696.17,61439
1,1694.78,61419
1,1693.39,61407
1,1692.01,61423
1,1690.62,61408
1,1689.23,61429
1,1687.84,61434
1,1686.45,61421
1,1685.06,61424
1,1683.67,61421
1,1682.28,61420
1,1680.89,61437
1,1679.49,61417
1,1678.1,61416
1,1676.71,61417
1,1675.32,61425
1,1673.93,61425
1,1672.53,61419
1,1671.14,61426
1,1669.75,61407
1,1668.36,61427
1,1666.96,61431
1,1665.57,61432
1,1664.17,61425
1,1662.78,61421
1,1661.38,61431
1,1659.99,61429
1,1658.59,61423
1,1657.2,61436
1,1655.8,61412
1,1654.41,61436
1,1653.01,61427
1,1651.61,61433
1,1650.22,61433
1,1648.82,61433
1,1647.42,61431
1,1646.02,61433
1,1644.63,61421
1,1643.23,61431
1,1641.83,61418
1,1640.43,61426
1,1639.03,61451
1,1637.63,61435
1,1636.23,61435
1,1634.83,61431
1,1633.43,61441
1,1632.03,61432
1,1630.63,61446
1,1629.23,61447
1,1627.83,61420
1,1626.43,61439
1,1625.02,61434
1,1623.62,61437
1,1622.22,61426
1,1620.82,61434
1,1619.41,61440
1,1618.01,61440
1,1616.61,61431
1,1615.2,61444
1,1613.8,61427
1,1612.39,61421
1,1610.99,61439
1,1609.58,61427
1,1608.18,61421
1,1606.77,61431
1,1605.37,61447
1,1603.96,61438
1,1602.56,61430
1,1601.15,61440
1,1599.74,61428
1,1598.33,61435
1,1596.93,61439
1,1595.52,61447
1,1594.11,61433
1,1592.7,61450
1,1591.29,61442
1,1589.89,61417
1,1588.48,61431
1,1587.07,61443
1,1585.66,61437
1,1584.25,61436
1,1582.84,61444
1,1581.43,61443
1,1580.02,61445
1,1578.6,61447
1,1577.19,61428
1,1575.78,61439
1,1574.37,61453
1,1572.96,61434
1,1571.54,61446
1,1570.13,61442
1,1568.72,61431
1,1567.3,61445
1,1565.89,61427
1,1564.48,61437
1,1563.06,61439
1,1561.65,61434
1,1560.23,61437
1,1558.82,61432
1,1557.4,61438
1,1555.99,61434
1,1554.57,61417
1,1553.16,61433
1,1551.74,61439
1,1550.32,61448
1,1548.91,61417
1,1547.49,61420
1,1546.07,61439
1,1544.65,61414
1,1543.23,61433
1,1541.82,61433
1,1540.4,61440
1,1538.98,61432
1,1537.56,61431
1,1536.14,61431
1,1534.72,61435
1,1533.3,61439
1,1531.88,61440
1,1530.46,61447
1,1529.04,61433
1,1527.62,61430
1,1526.19,61440
1,1524.77,61431
1,1523.35,61434
1,1521.93,61424
1,1520.51,61434
1,1519.08,61427
1,1517.66,61444
1,1516.24,61429
1,1514.81,61422
1,1513.39,61430
1,1511.96,61432
1,1510.54,61443
1,1509.11,61450
1,1507.69,61431
1,1506.26,61449
1,1504.84,61449
1,1503.41,61441
1,1501.98,61456
1,1500.56,61430
1,1499.13,61441
1,1497.7,61445
1,1496.28,61423
1,1494.85,61437
1,1493.42,61445
1,1491.99,61451
1,1490.56,61443
1,1489.13,61439
1,1487.71,61445
1,1486.28,61444
1,1484.85,61453
1,1483.42,61430
1,1481.99,61438
1,1480.55,61447
1,1479.12,61421
1,1477.69,61449
1,1476.26,61434
1,1474.83,61438
1,1473.4,61440
1,1471.96,61425
1,1470.53,61444
1,1469.1,61463
1,1467.67,61426
1,1466.23,61438
1,1464.8,61432
1,1463.36,61424
1,1461.93,61427
1,1460.5,61449
1,1459.06,61436
1,1457.63,61445
1,1456.19,61413
1,1454.75,61430
1,1453.32,61426
1,1451.88,61438
1,1450.44,61430
1,1449.01,61452
1,1447.57,61438
1,1446.13,61446
1,1444.7,61422
1,1443.26,61436
1,1441.82,61444
1,1440.38,61462
1,1438.94,61435
1,1437.5,61432
1,1436.06,61445
1,1434.62,61433
1,1433.18,61448
1,1431.74,61443
1,1430.3,61436
1,1428.86,61435
1,1427.42,61426
1,1425.98,61446
1,1424.54,61431
1,1423.09,61434
1,1421.65,61459
1,1420.21,61439
1,1418.77,61441
1,1417.32,61441
1,1415.88,61444
1,1414.43,61426
1,1412.99,61435
1,1411.55,61445
1,1410.1,61441
1,1408.66,61436
1,1407.21,61438
1,1405.76,61443
1,1404.32,61428
1,1402.87,61440
1,1401.43,61444
1,1399.98,61426
1,1398.53,61425
1,1397.09,61444
1,1395.64,61437
1,1394.19,61431
1,1392.74,61429
1,1391.29,61444
1,1389.84,61441
1,1388.39,61429
1,1386.95,61441
1,1385.5,61429
1,1384.05,61448
1,1382.6,61431
1,1381.14,61436
1,1379.69,61429
1,1378.24,61433
1,1376.79,61433
1,1375.34,61427
1,1373.89,61462
1,1372.44,61441
1,1370.98,61448
1,1369.53,61437
1,1368.08,61438
1,1366.62,61429
1,1365.17,61430
1,1363.71,61427
1,1362.26,61456
1,1360.81,61431
1,1359.35,61444
1,1357.9,61436
1,1356.44,61429
1,1354.98,61432
1,1353.53,61445
1,1352.07,61442
1,1350.61,61434
1,1349.16,61429
1,1347.7,61425
1,1346.24,61431
1,1344.79,61446
1,1343.33,61444
1,1341.87,61452
1,1340.41,61444
1,1338.95,61452
1,1337.49,61442
1,1336.03,61441
1,1334.57,61439
1,1333.11,61436
1,1331.65,61447
1,1330.19,61449
1,1328.73,61454
1,1327.27,61428
1,1325.81,61443
1,1324.34,61450
1,1322.88,61441
1,1321.42,61433
1,1319.96,61440
1,1318.49,61422
1,1317.03,61449
1,1315.57,61435
1,1314.1,61425
1,1312.64,61430
1,1311.17,61438
1,1309.71,61439
1,1308.24,61445
1,1306.78,61428
1,1305.31,61434
1,1303.84,61435
1,1302.38,61458
1,1300.91,61433
1,1299.44,61430
1,1297.98,61440
1,1296.51,61438
1,1295.04,61446
1,1293.57,61434
1,1292.1,61448
1,1290.64,61449
1,1289.17,61429
1,1287.7,61445
1,1286.23,61424
1,1284.76,61434
1,1283.29,61440
1,1281.82,61445
1,1280.34,61443
1,1278.87,61448
1,1277.4,61430
1,1275.93,61458
1,1274.46,61457
1,1272.99,61440
1,1271.51,61431
1,1270.04,61456
1,1268.57,61438
1,1267.09,61420
1,1265.62,61429
1,1264.14,61425
1,1262.67,61451
1,1261.2,61448
1,1259.72,61445
1,1258.25,61441
1,1256.77,61439
1,1255.29,61442
1,1253.82,61438
1,1252.34,61435
1,1250.86,61434
1,1249.39,61438
1,1247.91,61431
1,1246.43,61433
1,1244.95,61442
1,1243.47,61453
1,1242,61429
1,1240.52,61451
1,1239.04,61451
1,1237.56,61432
1,1236.08,61441
1,1234.6,61431
1,1233.12,61444
1,1231.64,61432
1,1230.16,61441
1,1228.67,61430
1,1227.19,61433
1,1225.71,61438
1,1224.23,61436
1,1222.75,61432
1,1221.26,61434
1,1219.78,61433
1,1218.3,61432
1,1216.81,61426
1,1215.33,61437
1,1213.84,61438
1,1212.36,61441
1,1210.87,61428
1,1209.39,61442
1,1207.9,61442
1,1206.42,61431
1,1204.93,61442
1,1203.44,61441
1,1201.96,61447
1,1200.47,61435
1,1198.98,61433
1,1197.49,61451
1,1196.01,61441
1,1194.52,61418
1,1193.03,61428
1,1191.54,61431
1,1190.05,61458
1,1188.56,61444
1,1187.07,61436
1,1185.58,61441
1,1184.09,61431
1,1182.6,61433
1,1181.11,61439
1,1179.62,61429
1,1178.13,61446
1,1176.63,61442
1,1175.14,61439
1,1173.65,61431
1,1172.16,61431
1,1170.66,61456
1,1169.17,61449
1,1167.68,61443
1,1166.18,61435
1,1164.69,61431
1,1163.19,61438
1,1161.7,61438
1,1160.2,61436
1,1158.71,61436
1,1157.21,61454
1,1155.71,61438
1,1154.22,61434
1,1152.72,61431
1,1151.22,61441
1,1149.73,61444
1,1148.23,61436
1,1146.73,61453
1,1145.23,61444
1,1143.73,61447
1,1142.23,61432
1,1140.73,61436
1,1139.23,61447
1,1137.73,61453
1,1136.23,61433
1,1134.73,61434
1,1133.23,61439
1,1131.73,61429
1,1130.23,61438
1,1128.73,61449
1,1127.23,61439
1,1125.72,61433
1,1124.22,61445
1,1122.72,61445
1,1121.21,61429
1,1119.71,61448
1,1118.21,61440
1,1116.7,61431
1,1115.2,61443
1,1113.69,61432
1,1112.19,61427
1,1110.68,61444
1,1109.18,61432
1,1107.67,61436
1,1106.16,61435
1,1104.66,61458
1,1103.15,61439
1,1101.64,61436
1,1100.14,61428
1,1098.63,61423
1,1097.12,61434
1,1095.61,61430
1,1094.1,61440
1,1092.59,61463
1,1091.08,61449
1,1089.57,61420
1,1088.06,61452
1,1086.55,61434
1,1085.04,61425
1,1083.53,61442
1,1082.02,61439
1,1080.51,61439
1,1079,61442
1,1077.48,61445
1,1075.97,61432
1,1074.46,61444
1,1072.94,61447
1,1071.43,61438
1,1069.92,61434
1,1068.4,61440
1,1066.89,61446
1,1065.37,61440
1,1063.86,61427
1,1062.34,61435
1,1060.83,61435
1,1059.31,61447
1,1057.8,61434
1,1056.28,61455
1,1054.76,61435
1,1053.24,61453
1,1051.73,61430
1,1050.21,61454
1,1048.69,61433
1,1047.17,61425
1,1045.65,61446
1,1044.13,61447
1,1042.61,61438
1,1041.09,61429
1,1039.57,61442
1,1038.05,61459
1,1036.53,61434
1,1035.01,61439
1,1033.49,61431
1,1031.97,61440
1,1030.45,61450
1,1028.93,61431
1,1027.4,61442
1,1025.88,61430
1,1024.36,61460
1,1022.83,61424
1,1021.31,61431
1,1019.78,61427
1,1018.26,61437
1,1016.74,61440
1,1015.21,61438
1,1013.68,61441
1,1012.16,61477
1,1010.63,61459
1,1009.11,61444
1,1007.58,61442
1,1006.05,61435
1,1004.53,61428
1,1003,61432
1,1001.47,61445
1,999.942,61436
1,998.413,61423
1,996.884,61436
1,995.355,61450
1,993.825,61419
1,992.296,61429
1,990.765,61442
1,989.235,61442
1,987.704,61440
1,986.173,61440
1,984.642,61445
1,983.11,61422
1,981.578,61437
1,980.045,61448
1,978.513,61432
1,976.98,61454
1,975.446,61452
1,973.913,61438
1,972.379,61434
1,970.844,61437
1,969.31,61429
1,967.775,61449
1,966.24,61447
1,964.704,61432
1,963.168,61431
1,961.632,61428
1,960.095,61443
1,958.559,61427
1,957.021,61446
1,955.484,61447
1,953.946,61423
1,952.408,61438
1,950.87,61432
1,949.331,61451
1,947.792,61448
1,946.253,61428
1,944.713,61448
1,943.173,61438
1,941.632,61430
1,940.092,61438
1,938.551,61454
1,937.01,61432
1,935.468,61437
1,933.926,61436
1,932.384,61428
1,930.841,61442
1,929.298,61444
1,927.755,61442
1,926.211,61433
1,924.668,61433
1,923.123,61452
1,921.579,61445
1,920.034,61440
1,918.489,61454
1,916.944,61413
1,915.398,61440
1,913.852,61454
1,912.305,61443
1,910.758,61443
1,909.211,61430
1,907.664,61434
1,906.116,61440
1,904.568,61452
1,903.02,61438
1,901.471,61440
1,899.922,61429
1,898.373,61445
1,896.823,61435
1,895.273,61447
1,893.723,61447
1,892.172,61445
1,890.621,61427
1,889.07,61439
1,887.519,61436
1,885.967,61431
1,884.415,61434
1,882.862,61439
1,881.309,61437
1,879.756,61437
1,878.202,61433
1,876.649,61445
1,875.094,61435
1,873.54,61440
1,871.985,61445
1,870.43,61446
1,868.875,61446
1,867.319,61422
1,865.763,61447
1,864.206,61435
1,862.649,61460
1,861.092,61419
1,859.535,61435
1,857.977,61435
1,856.419,61438
1,854.861,61445
1,853.302,61434
1,851.743,61434
1,850.184,61448
1,848.624,61447
1,847.064,61457
1,845.504,61440
1,843.943,61424
1,842.382,61432
1,840.821,61433
1,839.259,61428
1,837.697,61453
1,836.135,61443
1,834.572,61446
1,833.009,61434
1,831.446,61448
1,829.882,61434
1,828.319,61435
1,826.754,61448
1,825.19,61454
1,823.625,61430
1,822.06,61431
1,820.494,61442
1,818.928,61451
1,817.362,61450
1,815.795,61445
1,814.229,61436
1,812.661,61443
1,811.094,61446
1,809.526,61433
1,807.958,61436
1,806.389,61424
1,804.821,61443
1,803.251,61429
1,801.682,61418
1,800.112,61431
1,798.542,61433
1,796.971,61457
1,795.401,61433
1,793.83,61449
1,792.258,61443
1,790.686,61454
1,789.114,61439
1,787.542,61449
1,785.969,61437
1,784.396,61453
1,782.822,61432
1,781.249,61424
1,779.675,61448
1,778.1,61431
1,776.525,61445
1,774.95,61451
1,773.375,61436
1,771.799,61436
1,770.223,61444
1,768.647,61439
1,767.07,61434
1,765.493,61435
1,763.915,61439
1,762.338,61426
1,760.76,61434
1,759.181,61435
1,757.603,61424
1,756.023,61447
1,754.444,61440
1,752.864,61434
1,751.284,61446
1,749.704,61445
1,748.123,61430
1,746.542,61438
1,744.961,61443
1,743.379,61438
1,741.797,61434
1,740.215,61451
1,738.632,61445
1,737.049,61451
1,735.466,61441
1,733.882,61442
1,732.298,61445
1,730.713,61441
1,729.129,61431
1,727.544,61440
1,725.958,61437
1,724.373,61439
1,722.787,61451
1,721.2,61436
1,719.614,61444
1,718.027,61448
1,716.439,61427
1,714.851,61443
1,713.263,61450
1,711.675,61428
1,710.086,61454
1,708.497,61451
1,706.908,61432
1,705.318,61443
1,703.728,61460
1,702.138,61448
1,700.547,61443
1,698.956,61428
1,697.365,61431
1,695.773,61435
1,694.181,61437
1,692.588,61454
1,690.996,61426
1,689.403,61443
1,687.809,61431
1,686.215,61445
1,684.621,61436
1,683.027,61432
1,681.432,61437
1,679.837,61442
1,678.242,61431
1,676.646,61458
1,675.05,61439
1,673.453,61447
1,671.857,61441
1,670.26,61433
1,668.662,61442
1,667.064,61434
1,665.466,61438
1,663.868,61431
1,662.269,61452
1,660.67,61444
1,659.07,61439
1,657.471,61445
1,655.87,61434
1,654.27,61439
1,652.669,61439
1,651.068,61447
1,649.466,61432
1,647.865,61439
1,646.262,61438
1,644.66,61433
1,643.057,61435
1,641.454,61441
1,639.85,61445
1,638.247,61441
1,636.642,61444
1,635.038,61450
1,633.433,61438
1,631.828,61449
1,630.222,61440
1,628.616,61440
1,627.01,61434
1,625.403,61448
1,623.796,61432
1,622.189,61435
1,620.582,61429
1,618.974,61448
1,617.365,61436
1,615.757,61453
1,614.148,61430
1,612.538,61453
1,610.929,61446
1,609.319,61443
1,607.708,61440
1,606.098,61447
1,604.487,61440
1,602.875,61454
1,601.264,61442
1,599.652,61446
1,598.039,61438
1,596.426,61449
1,594.813,61436
1,593.2,61442
1,591.586,61437
1,589.972,61436
1,588.358,61436
1,586.743,61431
1,585.128,61437
1,583.512,61435
1,581.897,61440
1,580.28,61448
1,578.664,61414
1,577.047,61446
1,575.43,61446
1,573.812,61437
1,572.194,61431
1,570.576,61436
1,568.958,61441
1,567.339,61442
1,565.72,61450
1,564.1,61425
1,562.48,61443
1,560.86,61426
1,559.239,61440
1,557.618,61429
1,555.997,61436
1,554.375,61442
1,552.753,61437
1,551.131,61440
1,549.508,61443
1,547.885,61438
1,546.262,61442
1,544.638,61439
1,543.014,61443
1,541.389,61438
1,539.765,61445
1,538.14,61419
1,536.514,61434
1,534.888,61435
1,533.262,61441
1,531.636,61433
1,530.009,61432
1,528.382,61438
1,526.754,61431
1,525.126,61445
1,523.498,61434
1,521.869,61439
1,520.24,61431
1,518.611,61438
1,516.982,61433
1,515.352,61425
1,513.721,61425
1,512.091,61442
1,510.46,61444
1,508.828,61425
1,507.197,61440
1,505.565,61443
1,503.932,61437
1,502.299,61451
1,500.666,61434
1,499.033,61445
1,497.399,61449
1,495.765,61431
1,494.13,61438
1,492.496,61441
1,490.86,61437
1,489.225,61429
1,487.589,61448
1,485.953,61423
1,484.316,61445
1,482.679,61433
1,481.042,61448
1,479.404,61444
1,477.766,61450
1,476.128,61436
1,474.489,61438
1,472.85,61449
1,471.211,61439
1,469.571,61437
1,467.931,61450
1,466.29,61415
1,464.65,61431
1,463.008,61418
1,461.367,61431
1,459.725,61443
1,458.083,61437
1,456.44,61435
1,454.797,61446
1,453.154,61437
1,451.511,61440
1,449.867,61451
1,448.222,61435
1,446.578,61421
1,444.933,61443
1,443.287,61440
1,441.642,61427
1,439.995,61437
1,438.349,61445
1,436.702,61419
1,435.055,61432
1,433.408,61435
1,431.76,61439
1,430.112,61431
1,428.463,61434
1,426.814,61424
1,425.165,61442
1,423.515,61424
1,421.865,61431
1,420.215,61463
1,418.564,61438
1,416.913,61432
1,415.262,61430
1,413.61,61448
1,411.958,61442
1,410.306,61444
1,408.653,61438
1,407,61438
1,405.346,61424
1,403.692,61435
1,402.038,61438
1,400.383,61438
1,398.729,61434
1,397.073,61440
1,395.418,61449
1,393.762,61430
1,392.105,61420
1,390.449,61452
1,388.791,61423
1,387.134,61438
1,385.476,61438
1,383.818,61441
1,382.16,61425
1,380.501,61447
1,378.842,61434
1,377.182,61439
1,375.522,61442
1,373.862,61444
1,372.201,61434
1,370.54,61442
1,368.879,61441
1,367.217,61420
1,365.555,61443
1,363.893,61442
1,362.23,61441
1,360.567,61437
1,358.903,61447
1,357.239,61440
1,355.575,61431
1,353.911,61432
1,352.246,61443
1,350.58,61455
1,348.915,61450
1,347.249,61433
1,345.582,61453
1,343.916,61447
1,342.249,61433
1,340.581,61424
1,338.913,61430
1,337.245,61444
1,335.577,61445
1,333.908,61429
1,332.238,61436
1,330.569,61447
1,328.899,61441
1,327.229,61435
1,325.558,61447
1,323.887,61425
1,322.215,61434
1,320.544,61443
1,318.871,61439
1,317.199,61421
1,315.526,61438
1,313.853,61430
1,312.179,61444
1,310.505,61456
1,308.831,61431
1,307.156,61426
1,305.481,61440
1,303.806,61440
1,302.13,61434
1,300.454,61435
1,298.778,61431
1,297.101,61434
1,295.424,61445
1,293.746,61446
1,292.068,61442
1,290.39,61434
1,288.711,61452
1,287.032,61436
1,285.353,61419
1,283.673,61435
1,281.993,61426
1,280.312,61435
1,278.632,61427
1,276.95,61437
1,275.269,61448
1,273.587,61438
1,271.905,61432
1,270.222,61436
1,268.539,61435
1,266.856,61431
1,265.172,61428
1,263.488,61454
1,261.803,61429
1,260.118,61438
1,258.433,61426
1,256.748,61445
1,255.062,61439
1,253.375,61444
1,251.689,61426
1,250.002,61444
1,248.314,61435
1,246.626,61440
1,244.938,61424
1,243.25,61450
1,241.561,61445
1,239.872,61428
1,238.182,61437
1,236.492,61432
1,234.802,61429
1,233.111,61425
1,231.42,61436
1,229.729,61428
1,228.037,61453
1,226.345,61430
1,224.652,61440
1,222.959,61435
1,221.266,61427
1,219.572,61456
1,217.878,61414
1,216.184,61429
1,214.489,61433
1,212.794,61426
1,211.098,61444
1,209.403,61451
1,207.706,61433
1,206.01,61443
1,204.313,61438
1,202.615,61437
1,200.918,61441
1,199.22,61435
1,197.521,61437
1,195.822,61424
1,194.123,61429
1,192.424,61428
1,190.724,61441
1,189.023,61461
1,187.323,61446
1,185.622,61439
1,183.92,61432
1,182.219,61433
1,180.516,61434
1,178.814,61418
1,177.111,61447
1,175.408,61435
1,173.704,61422
1,172,61438
1,170.296,61438
1,168.591,61440
1,166.886,61428
1,165.18,61439
1,163.474,61431
1,161.768,61423
1,160.062,61446
1,158.355,61428
1,156.647,61425
1,154.94,61441
1,153.231,61421
1,151.523,61436
1,149.814,61432
1,148.105,61439
1,146.395,61426
1,144.685,61442
1,142.975,61424
1,141.264,61432
1,139.553,61424
1,137.842,61441
1,136.13,61431
1,134.418,61436
1,132.705,61429
1,130.992,61427
1,129.279,61446
1,127.565,61431
1,125.851,61430
1,124.137,61437
1,122.422,61434
1,120.707,61427
1,118.991,61422
1,117.275,61428
1,115.559,61427
1,113.842,61430
1,112.125,61445
1,110.407,61434
1,108.69,61425
1,106.971,61447
1,105.253,61426
1,103.534,61432
1,101.815,61436
1,100.095,61441
1,98.3747,61436
1,96.6542,61426
1,94.9334,61440
1,93.2122,61422
1,91.4906,61421
1,89.7686,61434
1,88.0462,61439
1,86.3235,61420
1,84.6004,61435
1,82.8769,61429
1,81.153,61430
1,79.4288,61431
1,77.7041,61425
1,75.9791,61430
1,74.2538,61429
1,72.528,61448
1,70.8019,61430
1,69.0753,61441
1,67.3484,61423
1,65.6212,61435
1,63.8935,61428
1,62.1655,61449
1,60.4371,61419
1,58.7083,61455
1,56.9791,61421
1,55.2495,61436
1,53.5196,61448
1,51.7893,61449
1,50.0586,61436
1,48.3275,61438
1,46.5961,61431
1,44.8642,61427
1,43.132,61429
1,41.3994,61438
1,39.6665,61423
1,37.9331,61423
1,36.1994,61428
1,34.4652,61441
1,32.7307,61438
1,30.9958,61422
1,29.2606,61424
1,27.5249,61430
1,25.7889,61441
1,24.0525,61418
1,22.3157,61431
1,20.5785,61441
1,18.841,61436
1,17.103,61439
1,15.3647,61441
1,13.626,61417
1,11.8869,61411
1,10.1474,61437
1,8.40756,61435
1,6.66732,61443
1,4.92669,61415
1,3.18569,61439
1,1.44429,61430
1,-0.297481,61447
1,-2.03964,61432
1,-3.78218,61433
1,-5.52511,61428
1,-7.26843,61413
1,-9.01212,61429
1,-10.7562,61444
1,-12.5007,61441
1,-14.2455,61430
1,-15.9908,61446
1,-17.7364,61422
1,-19.4824,61422
1,-21.2288,61411
1,-22.9756,61440
1,-24.7227,61432
1,-26.4703,61428
1,-28.2182,61431
1,-29.9665,61427
1,-31.7152,61425
1,-33.4643,61437
1,-35.2138,61426
1,-36.9637,61424
1,-38.7139,61422
1,-40.4646,61434
1,-42.2156,61437
1,-43.967,61429
1,-45.7188,61424
1,-47.471,61442
1,-49.2236,61435
1,-50.9765,61414
1,-52.7299,61446
1,-54.4836,61438
1,-56.2378,61411
1,-57.9923,61409
1,-59.7472,61376
1,-61.5025,61339
1,-63.2582,61387
1,-65.0142,61344
1,-66.7707,61716
