1,1981.76,126628
1,1980.43,127042
1,1979.09,127624
1,1977.76,127955
1,1976.43,128408
1,1975.09,129029
1,1973.76,129341
1,1972.43,129694
1,1971.09,130488
1,1969.76,130665
1,1968.42,130984
1,1967.09,131523
1,1965.75,131956
1,1964.42,132322
1,1963.08,132519
1,1961.74,133082
1,1960.41,133592
1,1959.07,133563
1,1957.73,134324
1,1956.4,134718
1,1955.06,135082
1,1953.72,135224
1,1952.38,135557
1,1951.04,136065
1,1949.71,136148
1,1948.37,136484
1,1947.03,136946
1,1945.69,136887
1,1944.35,137195
1,1943.01,137643
1,1941.67,137888
1,1940.33,138119
1,1938.99,138299
1,1937.65,138755
1,1936.31,138911
1,1934.97,139374
1,1933.62,139636
1,1932.28,139748
1,1930.94,139658
1,1929.6,140299
1,1928.26,140592
1,1926.91,140762
1,1925.57,140871
1,1924.23,141125
1,1922.88,141568
1,1921.54,141991
1,1920.19,142037
1,1918.85,141970
1,1917.51,142456
1,1916.16,142604
1,1914.82,142947
1,1913.47,143160
1,1912.12,143149
1,1910.78,143433
1,1909.43,143694
1,1908.09,143993
1,1906.74,144113
1,1905.39,144577
1,1904.04,144759
1,1902.7,145142
1,1901.35,145176
1,1900,145160
1,1898.65,145536
1,1897.3,145480
1,1895.95,145958
1,1894.61,146247
1,1893.26,146318
1,1891.91,146676
1,1890.56,146537
1,1889.21,147029
1,1887.86,147238
1,1886.51,147743
1,1885.15,147700
1,1883.8,147974
1,1882.45,147694
1,1881.1,148193
1,1879.75,148032
1,1878.4,148313
1,1877.04,148372
1,1875.69,148311
1,1874.34,148915
1,1872.98,148554
1,1871.63,148854
1,1870.28,149167
1,1868.92,149228
1,1867.57,149011
1,1866.21,149374
1,1864.86,148956
1,1863.5,149179
1,1862.15,148743
1,1860.79,148726
1,1859.44,148158
1,1858.08,147938
1,1856.72,147369
1,1855.37,146576
1,1854.01,146221
1,1852.65,145268
1,1851.29,143700
1,1849.94,142366
1,1848.58,140492
1,1847.22,138189
1,1845.86,135553
1,1844.5,133250
1,1843.14,130027
1,1841.78,127239
1,1840.42,124530
1,1839.06,121623
1,1837.7,118669
1,1836.34,116054
1,1834.98,113391
1,1833.62,110807
1,1832.26,108425
1,1830.9,106255
1,1829.54,103775
1,1828.18,101297
1,1826.81,98824
1,1825.45,96220
1,1824.09,93430
1,1822.73,90549
1,1821.36,87954
1,1820,85341
1,1818.63,83109
1,1817.27,80518
1,1815.91,78476
1,1814.54,76721
1,1813.18,75095
1,1811.81,73606
1,1810.45,72374
1,1809.08,71273
1,1807.71,70441
1,1806.35,69676
1,1804.98,68990
1,1803.61,68436
1,1802.25,68052
1,1800.88,67607
1,1799.51,67347
1,1798.14,66947
1,1796.78,66774
1,1795.41,66534
1,1794.04,66372
1,1792.67,66231
1,1791.3,66053
1,1789.93,66011
1,1788.56,65841
1,1787.19,65776
1,1785.82,65800
1,1784.45,65687
1,1783.08,65655
1,1781.71,65665
1,1780.34,65541
1,1778.96,65600
1,1777.59,65572
1,1776.22,65539
1,1774.85,65550
1,1773.48,65536
1,1772.1,65485
1,1770.73,65595
1,1769.36,65553
1,1767.98,65484
1,1766.61,65462
1,1765.23,65471
1,1763.86,65472
1,1762.48,65438
1,1761.11,65494
1,1759.73,65383
1,1758.36,65410
1,1756.98,65353
1,1755.61,65422
1,1754.23,65451
1,1752.85,65422
1,1751.47,65415
1,1750.1,65381
1,1748.72,65418
1,1747.34,65427
1,1745.96,65392
1,1744.59,65417
1,1743.21,65462
1,1741.83,65431
1,1740.45,65438
1,1739.07,65503
1,1737.69,65557
1,1736.31,65484
1,1734.93,65459
1,1733.55,65466
1,1732.17,65489
1,1730.79,65523
1,1729.41,65516
1,1728.02,65532
1,1726.64,65578
1,1725.26,65563
1,1723.88,65618
1,1722.49,65604
1,1721.11,65599
1,1719.73,65675
1,1718.34,65723
1,1716.96,65661
1,1715.58,65703
1,1714.19,65734
1,1712.81,65717
1,1711.42,65781
1,1710.04,65816
1,1708.65,65793
1,1707.27,65803
1,1705.88,65784
1,1704.49,65770
1,1703.11,65748
1,1701.72,65755
1,1700.33,65819
1,1698.95,65816
1,1697.56,65857
1,1696.17,65899
1,1694.78,65925
1,1693.39,65981
1,1692.01,66087
1,1690.62,66269
1,1689.23,66468
1,1687.84,66650
1,1686.45,66971
1,1685.06,67233
1,1683.67,67590
1,1682.28,67960
1,1680.89,68579
1,1679.49,69094
1,1678.1,69625
1,1676.71,70338
1,1675.32,71151
1,1673.93,71820
1,1672.53,72825
1,1671.14,73980
1,1669.75,75481
1,1668.36,76783
1,1666.96,78130
1,1665.57,79476
1,1664.17,80832
1,1662.78,82395
1,1661.38,84255
1,1659.99,86202
1,1658.59,88621
1,1657.2,91028
1,1655.8,93402
1,1654.41,95126
1,1653.01,96733
1,1651.61,98483
1,1650.22,100547
1,1648.82,103126
1,1647.42,105843
1,1646.02,108486
1,1644.63,111037
1,1643.23,113348
1,1641.83,114879
1,1640.43,116479
1,1639.03,118131
1,1637.63,119749
1,1636.23,122001
1,1634.83,124100
1,1633.43,126316
1,1632.03,128342
1,1630.63,129983
1,1629.23,130671
1,1627.83,132074
1,1626.43,133136
1,1625.02,134702
1,1623.62,136325
1,1622.22,137818
1,1620.82,139405
1,1619.41,140219
1,1618.01,141645
1,1616.61,142196
1,1615.2,143200
1,1613.8,144108
1,1612.39,145053
1,1610.99,146139
1,1609.58,147506
1,1608.18,148995
1,1606.77,149836
1,1605.37,151057
1,1603.96,151442
1,1602.56,152303
1,1601.15,153092
1,1599.74,153768
1,1598.33,154587
1,1596.93,155413
1,1595.52,156239
1,1594.11,157509
1,1592.7,158433
1,1591.29,159287
1,1589.89,159685
1,1588.48,160282
1,1587.07,160690
1,1585.66,161023
1,1584.25,161540
1,1582.84,162536
1,1581.43,163577
1,1580.02,164227
1,1578.6,165017
1,1577.19,165634
1,1575.78,165700
1,1574.37,166342
1,1572.96,166389
1,1571.54,166681
1,1570.13,167533
1,1568.72,167597
1,1567.3,168092
1,1565.89,168755
1,1564.48,169179
1,1563.06,169456
1,1561.65,169594
1,1560.23,169529
1,1558.82,170158
1,1557.4,169992
1,1555.99,170018
1,1554.57,170573
1,1553.16,171089
1,1551.74,171312
1,1550.32,171734
1,1548.91,172096
1,1547.49,171848
1,1546.07,171805
1,1544.65,172092
1,1543.23,172246
1,1541.82,172271
1,1540.4,172749
1,1538.98,172452
1,1537.56,172821
1,1536.14,172824
1,1534.72,173258
1,1533.3,173083
1,1531.88,173346
1,1530.46,173148
1,1529.04,173255
1,1527.62,173254
1,1526.19,173728
1,1524.77,173319
1,1523.35,173389
1,1521.93,173613
1,1520.51,173545
1,1519.08,173676
1,1517.66,174110
1,1516.24,173671
1,1514.81,173551
1,1513.39,173711
1,1511.96,173581
1,1510.54,173731
1,1509.11,173750
1,1507.69,173834
1,1506.26,173741
1,1504.84,173929
1,1503.41,173805
1,1501.98,173787
1,1500.56,173701
1,1499.13,173514
1,1497.7,173454
1,1496.28,173319
1,1494.85,173522
1,1493.42,173209
1,1491.99,173524
1,1490.56,173385
1,1489.13,173606
1,1487.71,173375
1,1486.28,173103
1,1484.85,173160
1,1483.42,173348
1,1481.99,173178
1,1480.55,173267
1,1479.12,172996
1,1477.69,172857
1,1476.26,173091
1,1474.83,172851
1,1473.4,173122
1,1471.96,172810
1,1470.53,172482
1,1469.1,173022
1,1467.67,172625
1,1466.23,172527
1,1464.8,172567
1,1463.36,172309
1,1461.93,172438
1,1460.5,172577
1,1459.06,172222
1,1457.63,172391
1,1456.19,172354
1,1454.75,171975
1,1453.32,171986
1,1451.88,172135
1,1450.44,171915
1,1449.01,171709
1,1447.57,171660
1,1446.13,171511
1,1444.7,171483
1,1443.26,171557
1,1441.82,171754
1,1440.38,171270
1,1438.94,171443
1,1437.5,170999
1,1436.06,171074
1,1434.62,171209
1,1433.18,170789
1,1431.74,170945
1,1430.3,171061
1,1428.86,170976
1,1427.42,171036
1,1425.98,170950
1,1424.54,170472
1,1423.09,170942
1,1421.65,170558
1,1420.21,170735
1,1418.77,170389
1,1417.32,170107
1,1415.88,170076
1,1414.43,170307
1,1412.99,170030
1,1411.55,169950
1,1410.1,169929
1,1408.66,170016
1,1407.21,169873
1,1405.76,169823
1,1404.32,169932
1,1402.87,169925
1,1401.43,169619
1,1399.98,169565
1,1398.53,169546
1,1397.09,169540
1,1395.64,169281
1,1394.19,169023
1,1392.74,168951
1,1391.29,169277
1,1389.84,169095
1,1388.39,168839
1,1386.95,168900
1,1385.5,168534
1,1384.05,168834
1,1382.6,168541
1,1381.14,168406
1,1379.69,168333
1,1378.24,168610
1,1376.79,168374
1,1375.34,167963
1,1373.89,167994
1,1372.44,167884
1,1370.98,168163
1,1369.53,167989
1,1368.08,168114
1,1366.62,167694
1,1365.17,167769
1,1363.71,167290
1,1362.26,167638
1,1360.81,167605
1,1359.35,167258
1,1357.9,167394
1,1356.44,167478
1,1354.98,167006
1,1353.53,167022
1,1352.07,167287
1,1350.61,166878
1,1349.16,166925
1,1347.7,166664
1,1346.24,166724
1,1344.79,166835
1,1343.33,166522
1,1341.87,166101
1,1340.41,166449
1,1338.95,166382
1,1337.49,166042
1,1336.03,165685
1,1334.57,165556
1,1333.11,165659
1,1331.65,165815
1,1330.19,165865
1,1328.73,165405
1,1327.27,165663
1,1325.81,165365
1,1324.34,165372
1,1322.88,165471
1,1321.42,165326
1,1319.96,165075
1,1318.49,164723
1,1317.03,165070
1,1315.57,164776
1,1314.1,164860
1,1312.64,164722
1,1311.17,164789
1,1309.71,164628
1,1308.24,164337
1,1306.78,164400
1,1305.31,163969
1,1303.84,164059
1,1302.38,163959
1,1300.91,164031
1,1299.44,163797
1,1297.98,163710
1,1296.51,163744
1,1295.04,163497
1,1293.57,163892
1,1292.1,163675
1,1290.64,163309
1,1289.17,163238
1,1287.7,163270
1,1286.23,162827
1,1284.76,163182
1,1283.29,163029
1,1281.82,162735
1,1280.34,162478
1,1278.87,162387
1,1277.4,162642
1,1275.93,162343
1,1274.46,162338
1,1272.99,162234
1,1271.51,162010
1,1270.04,161926
1,1268.57,162140
1,1267.09,161857
1,1265.62,161873
1,1264.14,161552
1,1262.67,161700
1,1261.2,161642
1,1259.72,161596
1,1258.25,161435
1,1256.77,161024
1,1255.29,161376
1,1253.82,161095
1,1252.34,160686
1,1250.86,160512
1,1249.39,160781
1,1247.91,160549
1,1246.43,160596
1,1244.95,160307
1,1243.47,160361
1,1242,160514
1,1240.52,160306
1,1239.04,160390
1,1237.56,159903
1,1236.08,159762
1,1234.6,159564
1,1233.12,159751
1,1231.64,159566
1,1230.16,159459
1,1228.67,159159
1,1227.19,159025
1,1225.71,159078
1,1224.23,158581
1,1222.75,158884
1,1221.26,158259
1,1219.78,158548
1,1218.3,157947
1,1216.81,158358
1,1215.33,158526
1,1213.84,157926
1,1212.36,158271
1,1210.87,157728
1,1209.39,157657
1,1207.9,157650
1,1206.42,157637
1,1204.93,157737
1,1203.44,157566
1,1201.96,157442
1,1200.47,157121
1,1198.98,157181
1,1197.49,156736
1,1196.01,156907
1,1194.52,156967
1,1193.03,156668
1,1191.54,156854
1,1190.05,156378
1,1188.56,156644
1,1187.07,156126
1,1185.58,156508
1,1184.09,156105
1,1182.6,155831
1,1181.11,155674
1,1179.62,155520
1,1178.13,155787
1,1176.63,155873
1,1175.14,155593
1,1173.65,155040
1,1172.16,155278
1,1170.66,155011
1,1169.17,155186
1,1167.68,154914
1,1166.18,154841
1,1164.69,154697
1,1163.19,154663
1,1161.7,154774
1,1160.2,154606
1,1158.71,154515
1,1157.21,154095
1,1155.71,154468
1,1154.22,154210
1,1152.72,153841
1,1151.22,153487
1,1149.73,153606
1,1148.23,153383
1,1146.73,153280
1,1145.23,153466
1,1143.73,153426
1,1142.23,153306
1,1140.73,153183
1,1139.23,152704
1,1137.73,152682
1,1136.23,152535
1,1134.73,152627
1,1133.23,152357
1,1131.73,152325
1,1130.23,152123
1,1128.73,152030
1,1127.23,151974
1,1125.72,151938
1,1124.22,151920
1,1122.72,151441
1,1121.21,151645
1,1119.71,151513
1,1118.21,151547
1,1116.7,151143
1,1115.2,151361
1,1113.69,150956
1,1112.19,150800
1,1110.68,150705
1,1109.18,150691
1,1107.67,150473
1,1106.16,150736
1,1104.66,150345
1,1103.15,150139
1,1101.64,150191
1,1100.14,150002
1,1098.63,150009
1,1097.12,149709
1,1095.61,149762
1,1094.1,149602
1,1092.59,149438
1,1091.08,149365
1,1089.57,149064
1,1088.06,149159
1,1086.55,149231
1,1085.04,149201
1,1083.53,149152
1,1082.02,149095
1,1080.51,148749
1,1079,148708
1,1077.48,148473
1,1075.97,148217
1,1074.46,148218
1,1072.94,148019
1,1071.43,147813
1,1069.92,147867
1,1068.4,147833
1,1066.89,147956
1,1065.37,147731
1,1063.86,147746
1,1062.34,147168
1,1060.83,147168
1,1059.31,147347
1,1057.8,147152
1,1056.28,146812
1,1054.76,146620
1,1053.24,146397
1,1051.73,146440
1,1050.21,146485
1,1048.69,146435
1,1047.17,146302
1,1045.65,146377
1,1044.13,146034
1,1042.61,145991
1,1041.09,145914
1,1039.57,145655
1,1038.05,145726
1,1036.53,145278
1,1035.01,145109
1,1033.49,145169
1,1031.97,145206
1,1030.45,144935
1,1028.93,144932
1,1027.4,144635
1,1025.88,144814
1,1024.36,144772
1,1022.83,144202
1,1021.31,144145
1,1019.78,144134
1,1018.26,143876
1,1016.74,143923
1,1015.21,143712
1,1013.68,143909
1,1012.16,143898
1,1010.63,143508
1,1009.11,143215
1,1007.58,143297
1,1006.05,143657
1,1004.53,143293
1,1003,142762
1,1001.47,142673
1,999.942,142709
1,998.413,142664
1,996.884,142648
1,995.355,142559
1,993.825,142163
1,992.296,142326
1,990.765,141817
1,989.235,141883
1,987.704,141591
1,986.173,141638
1,984.642,141610
1,983.11,141546
1,981.578,141377
1,980.045,141260
1,978.513,140941
1,976.98,140819
1,975.446,140362
1,973.913,140809
1,972.379,140716
1,970.844,140505
1,969.31,140530
1,967.775,140309
1,966.24,140131
1,964.704,139781
1,963.168,139920
1,961.632,139592
1,960.095,139771
1,958.559,139748
1,957.021,139446
1,955.484,139304
1,953.946,139139
1,952.408,138846
1,950.87,138526
1,949.331,138556
1,947.792,138569
1,946.253,138626
1,944.713,138478
1,943.173,138218
1,941.632,138192
1,940.092,138133
1,938.551,138019
1,937.01,137690
1,935.468,137661
1,933.926,137477
1,932.384,137624
1,930.841,137385
1,929.298,137175
1,927.755,136977
1,926.211,136930
1,924.668,136647
1,923.123,137009
1,921.579,136532
1,920.034,136592
1,918.489,136422
1,916.944,136323
1,915.398,136004
1,913.852,135884
1,912.305,135818
1,910.758,135518
1,909.211,135607
1,907.664,135464
1,906.116,135204
1,904.568,134891
1,903.02,134801
1,901.471,135004
1,899.922,134687
1,898.373,134706
1,896.823,134591
1,895.273,134523
1,893.723,134352
1,892.172,134326
1,890.621,134109
1,889.07,134258
1,887.519,133980
1,885.967,133851
1,884.415,133852
1,882.862,133543
1,881.309,133575
1,879.756,133179
1,878.202,133305
1,876.649,132815
1,875.094,132933
1,873.54,132587
1,871.985,132652
1,870.43,132619
1,868.875,132328
1,867.319,132271
1,865.763,132250
1,864.206,131934
1,862.649,132052
1,861.092,131922
1,859.535,131842
1,857.977,131506
1,856.419,131560
1,854.861,131581
1,853.302,131528
1,851.743,131223
1,850.184,130881
1,848.624,131019
1,847.064,130785
1,845.504,130764
1,843.943,130515
1,842.382,130582
1,840.821,130673
1,839.259,130170
1,837.697,130163
1,836.135,129970
1,834.572,129655
1,833.009,129859
1,831.446,129581
1,829.882,129451
1,828.319,129317
1,826.754,129416
1,825.19,129143
1,823.625,128939
1,822.06,129135
1,820.494,128832
1,818.928,128520
1,817.362,128441
1,815.795,128432
1,814.229,128514
1,812.661,128198
1,811.094,128197
1,809.526,127793
1,807.958,127654
1,806.389,127711
1,804.821,127553
1,803.251,127520
1,801.682,127337
1,800.112,127260
1,798.542,126971
1,796.971,127171
1,795.401,126564
1,793.83,126762
1,792.258,126581
1,790.686,126467
1,789.114,126535
1,787.542,126296
1,785.969,126147
1,784.396,126257
1,782.822,126085
1,781.249,125843
1,779.675,125982
1,778.1,125536
1,776.525,125728
1,774.95,125408
1,773.375,125208
1,771.799,125162
1,770.223,125137
1,768.647,124817
1,767.07,124863
1,765.493,124655
1,763.915,124557
1,762.338,124341
1,760.76,124502
1,759.181,124272
1,757.603,124166
1,756.023,124047
1,754.444,123817
1,752.864,123650
1,751.284,123889
1,749.704,123588
1,748.123,123566
1,746.542,123443
1,744.961,123286
1,743.379,123186
1,741.797,122907
1,740.215,122916
1,738.632,122683
1,737.049,122784
1,735.466,122623
1,733.882,122272
1,732.298,122487
1,730.713,122123
1,729.129,121861
1,727.544,122027
1,725.958,122017
1,724.373,121459
1,722.787,121582
1,721.2,121476
1,719.614,121404
1,718.027,121184
1,716.439,121213
1,714.851,120986
1,713.263,120828
1,711.675,121040
1,710.086,120562
1,708.497,120549
1,706.908,120483
1,705.318,120416
1,703.728,120186
1,702.138,120063
1,700.547,120048
1,698.956,120018
1,697.365,119629
1,695.773,119473
1,694.181,119541
1,692.588,119458
1,690.996,119298
1,689.403,118944
1,687.809,119171
1,686.215,118811
1,684.621,119058
1,683.027,118771
1,681.432,118610
1,679.837,118435
1,678.242,117975
1,676.646,118121
1,675.05,118117
1,673.453,118015
1,671.857,117786
1,670.26,117640
1,668.662,117750
1,667.064,117809
1,665.466,117481
1,663.868,117408
1,662.269,117336
1,660.67,117388
1,659.07,116987
1,657.471,116655
1,655.87,116802
1,654.27,116457
1,652.669,116545
1,651.068,116611
1,649.466,116492
1,647.865,116066
1,646.262,116047
1,644.66,116091
1,643.057,115974
1,641.454,115535
1,639.85,115516
1,638.247,115386
1,636.642,115354
1,635.038,115167
1,633.433,115185
1,631.828,114850
1,630.222,114950
1,628.616,114979
1,627.01,114812
1,625.403,114528
1,623.796,114458
1,622.189,114551
1,620.582,114196
1,618.974,114017
1,617.365,113962
1,615.757,113708
1,614.148,113811
1,612.538,113807
1,610.929,113643
1,609.319,113500
1,607.708,113315
1,606.098,113142
1,604.487,112997
1,602.875,113093
1,601.264,112972
1,599.652,112513
1,598.039,112568
1,596.426,112435
1,594.813,112578
1,593.2,112304
1,591.586,112156
1,589.972,111835
1,588.358,111797
1,586.743,111817
1,585.128,111948
1,583.512,111736
1,581.897,111631
1,580.28,111287
1,578.664,111366
1,577.047,111273
1,575.43,111105
1,573.812,110957
1,572.194,111091
1,570.576,110906
1,568.958,110510
1,567.339,110621
1,565.72,110403
1,564.1,110335
1,562.48,110208
1,560.86,110122
1,559.239,109965
1,557.618,110073
1,555.997,109909
1,554.375,109664
1,552.753,109660
1,551.131,109383
1,549.508,109398
1,547.885,109168
1,546.262,109184
1,544.638,109025
1,543.014,108922
1,541.389,108725
1,539.765,108744
1,538.14,108828
1,536.514,108465
1,534.888,108366
1,533.262,108275
1,531.636,108477
1,530.009,107948
1,528.382,108201
1,526.754,107800
1,525.126,107696
1,523.498,107696
1,521.869,107598
1,520.24,107361
1,518.611,107242
1,516.982,107265
1,515.352,107152
1,513.721,106935
1,512.091,106864
1,510.46,106953
1,508.828,106758
1,507.197,106689
1,505.565,106354
1,503.932,106241
1,502.299,106200
1,500.666,106098
1,499.033,105923
1,497.399,105888
1,495.765,105892
1,494.13,105671
1,492.496,105623
1,490.86,105623
1,489.225,105372
1,487.589,105149
1,485.953,105239
1,484.316,105119
1,482.679,105025
1,481.042,104909
1,479.404,104668
1,477.766,104719
1,476.128,104763
1,474.489,104559
1,472.85,104528
1,471.211,104430
1,469.571,104362
1,467.931,104021
1,466.29,103884
1,464.65,104001
1,463.008,103772
1,461.367,103484
1,459.725,103498
1,458.083,103571
1,456.44,103364
1,454.797,103405
1,453.154,103213
1,451.511,103129
1,449.867,102963
1,448.222,102928
1,446.578,102930
1,444.933,102757
1,443.287,102472
1,441.642,102492
1,439.995,102491
1,438.349,102220
1,436.702,102222
1,435.055,102255
1,433.408,101852
1,431.76,101766
1,430.112,101811
1,428.463,101620
1,426.814,101716
1,425.165,101350
1,423.515,101606
1,421.865,101299
1,420.215,100948
1,418.564,101281
1,416.913,101176
1,415.262,100837
1,413.61,100762
1,411.958,100642
1,410.306,100429
1,408.653,100471
1,407,100455
1,405.346,100376
1,403.692,100143
1,402.038,100206
1,400.383,99891
1,398.729,99826
1,397.073,99869
1,395.418,99854
1,393.762,99796
1,392.105,99777
1,390.449,99488
1,388.791,99398
1,387.134,99320
1,385.476,98934
1,383.818,98926
1,382.16,98945
1,380.501,98812
1,378.842,98964
1,377.182,98839
1,375.522,98552
1,373.862,98529
1,372.201,98483
1,370.54,98427
1,368.879,98298
1,367.217,97933
1,365.555,98067
1,363.893,97827
1,362.23,97854
1,360.567,97758
1,358.903,97603
1,357.239,97606
1,355.575,97407
1,353.911,97375
1,352.246,97572
1,350.58,97234
1,348.915,97036
1,347.249,96955
1,345.582,96860
1,343.916,96854
1,342.249,96774
1,340.581,96621
1,338.913,96531
1,337.245,96420
1,335.577,96416
1,333.908,96259
1,332.238,96204
1,330.569,96067
1,328.899,96081
1,327.229,96012
1,325.558,95932
1,323.887,95576
1,322.215,95608
1,320.544,95529
1,318.871,95473
1,317.199,95333
1,315.526,95204
1,313.853,95179
1,312.179,95093
1,310.505,95045
1,308.831,94797
1,307.156,94625
1,305.481,94809
1,303.806,94601
1,302.13,94706
1,300.454,94511
1,298.778,94344
1,297.101,94238
1,295.424,94201
1,293.746,94008
1,292.068,94019
1,290.39,93937
1,288.711,93767
1,287.032,93823
1,285.353,93783
1,283.673,93699
1,281.993,93440
1,280.312,93589
1,278.632,93481
1,276.95,93325
1,275.269,93170
1,273.587,93081
1,271.905,92875
1,270.222,92865
1,268.539,92967
1,266.856,92853
1,265.172,92748
1,263.488,92509
1,261.803,92637
1,260.118,92625
1,258.433,92230
1,256.748,92108
1,255.062,92080
1,253.375,92039
1,251.689,91892
1,250.002,91910
1,248.314,91844
1,246.626,91679
1,244.938,91655
1,243.25,91695
1,241.561,91505
1,239.872,91678
1,238.182,91501
1,236.492,91347
1,234.802,91292
1,233.111,91273
1,231.42,91008
1,229.729,90789
1,228.037,91001
1,226.345,90864
1,224.652,90622
1,222.959,90577
1,221.266,90623
1,219.572,90524
1,217.878,90458
1,216.184,90336
1,214.489,90255
1,212.794,90041
1,211.098,90100
1,209.403,90002
1,207.706,89903
1,206.01,89663
1,204.313,89700
1,202.615,89635
1,200.918,89644
1,199.22,89623
1,197.521,89335
1,195.822,89446
1,194.123,89391
1,192.424,89295
1,190.724,89093
1,189.023,89089
1,187.323,88944
1,185.622,88990
1,183.92,88835
1,182.219,88711
1,180.516,88604
1,178.814,88506
1,177.111,88415
1,175.408,88398
1,173.704,88503
1,172,88482
1,170.296,88247
1,168.591,88066
1,166.886,88166
1,165.18,88069
1,163.474,87982
1,161.768,87926
1,160.062,87700
1,158.355,87555
1,156.647,87755
1,154.94,87480
1,153.231,87522
1,151.523,87198
1,149.814,87396
1,148.105,87302
1,146.395,87176
1,144.685,87000
1,142.975,86899
1,141.264,87104
1,139.553,86924
1,137.842,86863
1,136.13,86806
1,134.418,86625
1,132.705,86580
1,130.992,86417
1,129.279,86371
1,127.565,86445
1,125.851,86393
1,124.137,86233
1,122.422,86270
1,120.707,86110
1,118.991,85969
1,117.275,85885
1,115.559,85916
1,113.842,85874
1,112.125,85650
1,110.407,85806
1,108.69,85503
1,106.971,85641
1,105.253,85411
1,103.534,85413
1,101.815,85255
1,100.095,85211
1,98.3747,85137
1,96.6542,85108
1,94.9334,85050
1,93.2122,84953
1,91.4906,84922
1,89.7686,84759
1,88.0462,84721
1,86.3235,84559
1,84.6004,84601
1,82.8769,84358
1,81.153,84318
1,79.4288,84224
1,77.7041,84371
1,75.9791,84165
1,74.2538,83988
1,72.528,84039
1,70.8019,83859
1,69.0753,83834
1,67.3484,83659
1,65.6212,83629
1,63.8935,83422
1,62.1655,83428
1,60.4371,83397
1,58.7083,83296
1,56.9791,83253
1,55.2495,83140
1,53.5196,83085
1,51.7893,82937
1,50.0586,82802
1,48.3275,82623
1,46.5961,82609
1,44.8642,82521
1,43.132,82431
1,41.3994,82348
1,39.6665,82171
1,37.9331,82203
1,36.1994,81964
1,34.4652,82062
1,32.7307,81813
1,30.9958,81756
1,29.2606,81662
1,27.5249,81598
1,25.7889,81514
1,24.0525,81492
1,22.3157,81372
1,20.5785,81199
1,18.841,81177
1,17.103,81098
1,15.3647,81054
1,13.626,80787
1,11.8869,80849
1,10.1474,80692
1,8.40756,80523
1,6.66732,80615
1,4.92669,80396
1,3.18569,80317
1,1.44429,80128
1,-0.297481,80111
1,-2.03964,80024
1,-3.78218,79954
1,-5.52511,79723
1,-7.26843,79543
1,-9.01212,79514
1,-10.7562,79272
1,-12.5007,79171
1,-14.2455,79064
1,-15.9908,79155
1,-17.7364,78870
1,-19.4824,78626
1,-21.2288,78581
1,-22.9756,78654
1,-24.7227,78497
1,-26.4703,78283
1,-28.2182,78236
1,-29.9665,78086
1,-31.7152,77992
1,-33.4643,77837
1,-35.2138,77597
1,-36.9637,77517
1,-38.7139,77441
1,-40.4646,77234
1,-42.2156,77190
1,-43.967,77183
1,-45.7188,76685
1,-47.471,76890
1,-49.2236,76752
1,-50.9765,76546
1,-52.7299,76434
1,-54.4836,76313
1,-56.2378,76202
1,-57.9923,76114
1,-59.7472,75831
1,-61.5025,75757
1,-63.2582,75759
1,-65.0142,75590
1,-66.7707,75750
2,1981.76,126393
2,1980.43,127040
2,1979.09,127353
2,1977.76,127807
2,1976.43,128577
2,1975.09,128775
2,1973.76,129380
2,1972.43,129712
2,1971.09,130055
2,1969.76,130287
2,1968.42,131044
2,1967.09,131353
2,1965.75,131631
2,1964.42,132146
2,1963.08,132483
2,1961.74,132745
2,1960.41,133497
2,1959.07,133779
2,1957.73,134110
2,1956.4,134357
2,1955.06,134930
2,1953.72,135015
2,1952.38,135443
2,1951.04,135782
2,1949.71,136305
2,1948.37,136472
2,1947.03,136513
2,1945.69,136808
2,1944.35,137263
2,1943.01,137294
2,1941.67,137660
2,1940.33,138072
2,1938.99,137996
2,1937.65,138560
2,1936.31,138997
2,1934.97,139332
2,1933.62,139189
2,1932.28,139484
2,1930.94,140020
2,1929.6,140236
2,1928.26,140183
2,1926.91,140646
2,1925.57,140933
2,1924.23,140986
2,1922.88,141289
2,1921.54,141634
2,1920.19,141980
2,1918.85,142086
2,1917.51,142152
2,1916.16,142657
2,1914.82,142804
2,1913.47,142819
2,1912.12,143270
2,1910.78,143162
2,1909.43,143471
2,1908.09,143898
2,1906.74,144346
2,1905.39,144118
2,1904.04,144731
2,1902.7,144796
2,1901.35,145183
2,1900,145403
2,1898.65,145570
2,1897.3,146021
2,1895.95,146087
2,1894.61,146042
2,1893.26,146074
2,1891.91,146695
2,1890.56,146983
2,1889.21,146812
2,1887.86,147044
2,1886.51,147206
2,1885.15,147559
2,1883.8,147766
2,1882.45,147707
2,1881.1,147925
2,1879.75,148318
2,1878.4,148091
2,1877.04,148447
2,1875.69,148467
2,1874.34,148805
2,1872.98,148866
2,1871.63,148950
2,1870.28,148866
2,1868.92,148810
2,1867.57,149267
2,1866.21,148943
2,1864.86,149175
2,1863.5,148928
2,1862.15,148731
2,1860.79,148252
2,1859.44,148233
2,1858.08,147917
2,1856.72,147215
2,1855.37,146759
2,1854.01,146093
2,1852.65,144843
2,1851.29,143725
2,1849.94,142577
2,1848.58,140405
2,1847.22,138159
2,1845.86,135575
2,1844.5,133002
2,1843.14,130040
2,1841.78,127148
2,1840.42,124353
2,1839.06,121684
2,1837.7,118288
2,1836.34,115917
2,1834.98,113030
2,1833.62,110806
2,1832.26,108406
2,1830.9,106133
2,1829.54,103670
2,1828.18,101186
2,1826.81,98767
2,1825.45,96227
2,1824.09,93480
2,1822.73,90804
2,1821.36,87939
2,1820,85292
2,1818.63,82942
2,1817.27,80557
2,1815.91,78389
2,1814.54,76625
2,1813.18,75048
2,1811.81,73672
2,1810.45,72425
2,1809.08,71249
2,1807.71,70453
2,1806.35,69680
2,1804.98,68996
2,1803.61,68461
2,1802.25,68017
2,1800.88,67638
2,1799.51,67277
2,1798.14,67035
2,1796.78,66762
2,1795.41,66631
2,1794.04,66341
2,1792.67,66229
2,1791.3,66151
2,1789.93,65999
2,1788.56,65903
2,1787.19,65809
2,1785.82,65793
2,1784.45,65703
2,1783.08,65694
2,1781.71,65627
2,1780.34,65664
2,1778.96,65631
2,1777.59,65567
2,1776.22,65563
2,1774.85,65538
2,1773.48,65536
2,1772.1,65471
2,1770.73,65521
2,1769.36,65499
2,1767.98,65477
2,1766.61,65460
2,1765.23,65498
2,1763.86,65482
2,1762.48,65441
2,1761.11,65454
2,1759.73,65434
2,1758.36,65417
2,1756.98,65442
2,1755.61,65414
2,1754.23,65428
2,1752.85,65403
2,1751.47,65414
2,1750.1,65453
2,1748.72,65398
2,1747.34,65432
2,1745.96,65468
2,1744.59,65412
2,1743.21,65451
2,1741.83,65455
2,1740.45,65419
2,1739.07,65474
2,1737.69,65462
2,1736.31,65486
2,1734.93,65536
2,1733.55,65450
2,1732.17,65447
2,1730.79,65476
2,1729.41,65565
2,1728.02,65503
2,1726.64,65510
2,1725.26,65530
2,1723.88,65571
2,1722.49,65606
2,1721.11,65628
2,1719.73,65628
2,1718.34,65604
2,1716.96,65706
2,1715.58,65667
2,1714.19,65765
2,1712.81,65690
2,1711.42,65782
2,1710.04,65759
2,1708.65,65780
2,1707.27,65771
2,1705.88,65789
2,1704.49,65785
2,1703.11,65786
2,1701.72,65832
2,1700.33,65774
2,1698.95,65790
2,1697.56,65823
2,1696.17,65870
2,1694.78,65946
2,1693.39,66032
2,1692.01,66148
2,1690.62,66321
2,1689.23,66509
2,1687.84,66684
2,1686.45,66924
2,1685.06,67255
2,1683.67,67583
2,1682.28,68034
2,1680.89,68530
2,1679.49,69142
2,1678.1,69800
2,1676.71,70341
2,1675.32,71075
2,1673.93,71862
2,1672.53,72828
2,1671.14,74043
2,1669.75,75326
2,1668.36,76879
2,1666.96,78253
2,1665.57,79523
2,1664.17,80947
2,1662.78,82296
2,1661.38,84088
2,1659.99,86273
2,1658.59,88659
2,1657.2,91026
2,1655.8,93233
2,1654.41,94999
2,1653.01,96771
2,1651.61,98591
2,1650.22,100499
2,1648.82,102965
2,1647.42,105812
2,1646.02,108811
2,1644.63,110991
2,1643.23,113203
2,1641.83,114813
2,1640.43,116525
2,1639.03,118076
2,1637.63,119867
2,1636.23,122143
2,1634.83,124250
2,1633.43,126307
2,1632.03,128232
2,1630.63,129549
2,1629.23,130852
2,1627.83,131805
2,1626.43,133068
2,1625.02,134585
2,1623.62,135966
2,1622.22,137842
2,1620.82,139422
2,1619.41,140423
2,1618.01,141497
2,1616.61,142233
2,1615.2,143282
2,1613.8,144244
2,1612.39,145056
2,1610.99,146419
2,1609.58,147153
2,1608.18,148582
2,1606.77,149959
2,1605.37,151018
2,1603.96,151699
2,1602.56,152331
2,1601.15,152740
2,1599.74,153684
2,1598.33,154141
2,1596.93,155301
2,1595.52,156293
2,1594.11,157469
2,1592.7,158292
2,1591.29,159214
2,1589.89,159432
2,1588.48,160184
2,1587.07,160722
2,1585.66,161228
2,1584.25,161576
2,1582.84,162502
2,1581.43,163116
2,1580.02,164224
2,1578.6,164901
2,1577.19,165516
2,1575.78,165836
2,1574.37,166240
2,1572.96,166167
2,1571.54,166757
2,1570.13,166986
2,1568.72,167498
2,1567.3,168278
2,1565.89,168661
2,1564.48,169390
2,1563.06,169605
2,1561.65,169534
2,1560.23,169663
2,1558.82,169910
2,1557.4,170158
2,1555.99,170118
2,1554.57,170536
2,1553.16,170705
2,1551.74,170965
2,1550.32,171237
2,1548.91,171611
2,1547.49,171754
2,1546.07,172016
2,1544.65,172078
2,1543.23,172077
2,1541.82,171942
2,1540.4,172377
2,1538.98,172476
2,1537.56,172815
2,1536.14,173346
2,1534.72,172974
2,1533.3,173030
2,1531.88,173448
2,1530.46,173340
2,1529.04,173277
2,1527.62,173492
2,1526.19,173291
2,1524.77,173389
2,1523.35,173332
2,1521.93,173767
2,1520.51,173837
2,1519.08,173633
2,1517.66,173771
2,1516.24,173689
2,1514.81,173857
2,1513.39,173969
2,1511.96,173767
2,1510.54,173295
2,1509.11,174228
2,1507.69,173685
2,1506.26,173632
2,1504.84,173782
2,1503.41,173518
2,1501.98,173687
2,1500.56,173803
2,1499.13,173489
2,1497.7,173681
2,1496.28,173432
2,1494.85,173369
2,1493.42,173488
2,1491.99,173773
2,1490.56,173226
2,1489.13,173618
2,1487.71,173072
2,1486.28,173155
2,1484.85,173012
2,1483.42,173410
2,1481.99,173041
2,1480.55,172687
2,1479.12,173014
2,1477.69,173156
2,1476.26,173034
2,1474.83,173225
2,1473.4,172858
2,1471.96,172328
2,1470.53,172630
2,1469.1,172648
2,1467.67,172526
2,1466.23,172651
2,1464.8,172635
2,1463.36,172373
2,1461.93,172131
2,1460.5,172505
2,1459.06,172383
2,1457.63,172462
2,1456.19,172253
2,1454.75,172248
2,1453.32,171880
2,1451.88,172097
2,1450.44,171992
2,1449.01,171677
2,1447.57,171479
2,1446.13,171279
2,1444.7,171416
2,1443.26,171304
2,1441.82,171473
2,1440.38,171437
2,1438.94,171413
2,1437.5,171113
2,1436.06,171229
2,1434.62,171040
2,1433.18,170719
2,1431.74,170714
2,1430.3,170630
2,1428.86,171052
2,1427.42,170924
2,1425.98,170592
2,1424.54,170544
2,1423.09,170422
2,1421.65,170693
2,1420.21,170613
2,1418.77,169964
2,1417.32,170231
2,1415.88,170177
2,1414.43,170114
2,1412.99,170086
2,1411.55,169890
2,1410.1,169762
2,1408.66,170145
2,1407.21,169869
2,1405.76,169783
2,1404.32,169593
2,1402.87,169449
2,1401.43,169542
2,1399.98,169436
2,1398.53,169420
2,1397.09,169612
2,1395.64,169392
2,1394.19,169045
2,1392.74,168964
2,1391.29,169169
2,1389.84,169192
2,1388.39,168854
2,1386.95,169032
2,1385.5,168731
2,1384.05,168830
2,1382.6,168449
2,1381.14,168220
2,1379.69,168516
2,1378.24,168576
2,1376.79,168185
2,1375.34,167988
2,1373.89,168108
2,1372.44,167931
2,1370.98,167820
2,1369.53,167755
2,1368.08,168060
2,1366.62,167861
2,1365.17,167799
2,1363.71,167750
2,1362.26,167156
2,1360.81,167638
2,1359.35,167613
2,1357.9,167260
2,1356.44,166938
2,1354.98,167306
2,1353.53,167348
2,1352.07,167100
2,1350.61,166961
2,1349.16,167239
2,1347.7,166328
2,1346.24,166696
2,1344.79,166569
2,1343.33,166483
2,1341.87,166293
2,1340.41,166302
2,1338.95,166113
2,1337.49,165990
2,1336.03,165890
2,1334.57,165838
2,1333.11,165971
2,1331.65,165820
2,1330.19,165728
2,1328.73,166005
2,1327.27,165260
2,1325.81,165143
2,1324.34,165220
2,1322.88,165200
2,1321.42,165074
2,1319.96,165236
2,1318.49,164800
2,1317.03,164839
2,1315.57,164829
2,1314.1,164953
2,1312.64,164814
2,1311.17,164466
2,1309.71,164555
2,1308.24,164758
2,1306.78,164091
2,1305.31,164238
2,1303.84,163845
2,1302.38,164159
2,1300.91,163973
2,1299.44,163807
2,1297.98,163616
2,1296.51,163319
2,1295.04,163879
2,1293.57,163133
2,1292.1,163396
2,1290.64,163624
2,1289.17,163051
2,1287.7,163111
2,1286.23,162924
2,1284.76,163107
2,1283.29,163083
2,1281.82,162862
2,1280.34,162752
2,1278.87,162706
2,1277.4,162666
2,1275.93,162508
2,1274.46,162491
2,1272.99,162125
2,1271.51,162461
2,1270.04,162292
2,1268.57,162073
2,1267.09,161853
2,1265.62,161675
2,1264.14,161655
2,1262.67,161255
2,1261.2,161539
2,1259.72,161667
2,1258.25,161044
2,1256.77,161129
2,1255.29,160909
2,1253.82,160947
2,1252.34,160978
2,1250.86,160647
2,1249.39,160881
2,1247.91,160365
2,1246.43,160147
2,1244.95,160321
2,1243.47,160176
2,1242,160133
2,1240.52,160149
2,1239.04,159673
2,1237.56,160201
2,1236.08,159670
2,1234.6,159525
2,1233.12,159651
2,1231.64,159428
2,1230.16,159267
2,1228.67,159175
2,1227.19,159211
2,1225.71,159007
2,1224.23,158819
2,1222.75,158785
2,1221.26,159013
2,1219.78,158835
2,1218.3,158468
2,1216.81,158339
2,1215.33,158120
2,1213.84,158271
2,1212.36,157981
2,1210.87,158149
2,1209.39,157844
2,1207.9,157740
2,1206.42,157644
2,1204.93,157601
2,1203.44,157526
2,1201.96,157554
2,1200.47,157523
2,1198.98,157278
2,1197.49,157199
2,1196.01,156940
2,1194.52,156971
2,1193.03,156791
2,1191.54,156455
2,1190.05,156532
2,1188.56,156226
2,1187.07,156265
2,1185.58,156149
2,1184.09,156107
2,1182.6,156030
2,1181.11,155711
2,1179.62,155808
2,1178.13,155650
2,1176.63,155699
2,1175.14,155563
2,1173.65,155087
2,1172.16,155027
2,1170.66,154992
2,1169.17,155127
2,1167.68,154724
2,1166.18,154798
2,1164.69,154825
2,1163.19,154765
2,1161.7,154388
2,1160.2,154600
2,1158.71,154315
2,1157.21,154433
2,1155.71,154202
2,1154.22,154094
2,1152.72,154068
2,1151.22,153421
2,1149.73,153605
2,1148.23,153242
2,1146.73,153341
2,1145.23,153132
2,1143.73,153192
2,1142.23,153226
2,1140.73,153220
2,1139.23,152939
2,1137.73,152513
2,1136.23,152804
2,1134.73,152762
2,1133.23,152689
2,1131.73,152310
2,1130.23,152283
2,1128.73,151959
2,1127.23,151922
2,1125.72,152091
2,1124.22,151758
2,1122.72,151879
2,1121.21,151567
2,1119.71,151861
2,1118.21,151398
2,1116.7,151251
2,1115.2,151244
2,1113.69,150955
2,1112.19,150906
2,1110.68,150821
2,1109.18,150513
2,1107.67,150627
2,1106.16,150534
2,1104.66,150171
2,1103.15,150196
2,1101.64,150396
2,1100.14,150041
2,1098.63,149855
2,1097.12,150031
2,1095.61,149705
2,1094.1,149620
2,1092.59,149520
2,1091.08,149226
2,1089.57,149108
2,1088.06,149245
2,1086.55,149053
2,1085.04,148638
2,1083.53,148712
2,1082.02,148430
2,1080.51,148785
2,1079,148191
2,1077.48,148390
2,1075.97,148487
2,1074.46,148017
2,1072.94,148307
2,1071.43,147812
2,1069.92,147819
2,1068.4,147870
2,1066.89,147721
2,1065.37,147458
2,1063.86,147620
2,1062.34,147176
2,1060.83,147071
2,1059.31,146781
2,1057.8,147105
2,1056.28,146859
2,1054.76,146751
2,1053.24,146654
2,1051.73,146592
2,1050.21,146439
2,1048.69,146409
2,1047.17,146198
2,1045.65,145990
2,1044.13,146043
2,1042.61,145819
2,1041.09,145765
2,1039.57,145444
2,1038.05,145638
2,1036.53,145448
2,1035.01,145229
2,1033.49,144924
2,1031.97,145062
2,1030.45,145010
2,1028.93,144834
2,1027.4,144686
2,1025.88,144495
2,1024.36,144556
2,1022.83,144244
2,1021.31,144356
2,1019.78,143957
2,1018.26,144072
2,1016.74,144029
2,1015.21,143808
2,1013.68,143811
2,1012.16,143612
2,1010.63,143755
2,1009.11,143671
2,1007.58,143120
2,1006.05,142980
2,1004.53,142672
2,1003,142750
2,1001.47,142535
2,999.942,142833
2,998.413,142701
2,996.884,142429
2,995.355,142507
2,993.825,142354
2,992.296,142060
2,990.765,142137
2,989.235,141960
2,987.704,142015
2,986.173,141415
2,984.642,141365
2,983.11,141300
2,981.578,141366
2,980.045,141313
2,978.513,141125
2,976.98,140942
2,975.446,140687
2,973.913,140672
2,972.379,140545
2,970.844,140235
2,969.31,140496
2,967.775,140332
2,966.24,140185
2,964.704,139843
2,963.168,139636
2,961.632,139667
2,960.095,139676
2,958.559,139437
2,957.021,139286
2,955.484,139437
2,953.946,139238
2,952.408,138768
2,950.87,139076
2,949.331,138915
2,947.792,138496
2,946.253,138406
2,944.713,138195
2,943.173,138405
2,941.632,138257
2,940.092,137971
2,938.551,137899
2,937.01,137590
2,935.468,137783
2,933.926,137571
2,932.384,137246
2,930.841,137201
2,929.298,137175
2,927.755,136928
2,926.211,136970
2,924.668,136852
2,923.123,136892
2,921.579,136324
2,920.034,136304
2,918.489,136632
2,916.944,136124
2,915.398,136073
2,913.852,135899
2,912.305,136097
2,910.758,135930
2,909.211,135639
2,907.664,135719
2,906.116,135263
2,904.568,134995
2,903.02,134936
2,901.471,135038
2,899.922,134814
2,898.373,134773
2,896.823,134652
2,895.273,134368
2,893.723,134431
2,892.172,134452
2,890.621,133976
2,889.07,134274
2,887.519,133826
2,885.967,133676
2,884.415,133465
2,882.862,133571
2,881.309,133499
2,879.756,133296
2,878.202,133361
2,876.649,133169
2,875.094,132719
2,873.54,132742
2,871.985,132758
2,870.43,132889
2,868.875,132421
2,867.319,132147
2,865.763,132238
2,864.206,131988
2,862.649,132292
2,861.092,131577
2,859.535,131738
2,857.977,131834
2,856.419,131696
2,854.861,131623
2,853.302,131299
2,851.743,131132
2,850.184,131111
2,848.624,130992
2,847.064,130890
2,845.504,130979
2,843.943,130637
2,842.382,130692
2,840.821,130534
2,839.259,130304
2,837.697,130199
2,836.135,129840
2,834.572,129722
2,833.009,129729
2,831.446,129754
2,829.882,129329
2,828.319,129188
2,826.754,129334
2,825.19,129112
2,823.625,128900
2,822.06,128868
2,820.494,128646
2,818.928,128757
2,817.362,128480
2,815.795,128293
2,814.229,128640
2,812.661,128343
2,811.094,128014
2,809.526,128147
2,807.958,127909
2,806.389,127507
2,804.821,127535
2,803.251,127254
2,801.682,127420
2,800.112,127638
2,798.542,126857
2,796.971,126924
2,795.401,126616
2,793.83,126660
2,792.258,126756
2,790.686,126391
2,789.114,126383
2,787.542,126269
2,785.969,126333
2,784.396,125998
2,782.822,125923
2,781.249,125606
2,779.675,125859
2,778.1,125502
2,776.525,125331
2,774.95,125657
2,773.375,125283
2,771.799,125087
2,770.223,125027
2,768.647,124749
2,767.07,124843
2,765.493,125038
2,763.915,124629
2,762.338,124606
2,760.76,124648
2,759.181,124306
2,757.603,124076
2,756.023,123989
2,754.444,123831
2,752.864,123858
2,751.284,123602
2,749.704,123658
2,748.123,123529
2,746.542,123424
2,744.961,123165
2,743.379,122855
2,741.797,123206
2,740.215,122958
2,738.632,122677
2,737.049,122792
2,735.466,122602
2,733.882,122360
2,732.298,122385
2,730.713,122083
2,729.129,122085
2,727.544,122148
2,725.958,121735
2,724.373,121889
2,722.787,121627
2,721.2,121406
2,719.614,121393
2,718.027,121278
2,716.439,120805
2,714.851,121029
2,713.263,120847
2,711.675,120851
2,710.086,120484
2,708.497,120538
2,706.908,120467
2,705.318,120328
2,703.728,120219
2,702.138,120002
2,700.547,120124
2,698.956,119818
2,697.365,119747
2,695.773,119783
2,694.181,119307
2,692.588,119502
2,690.996,119175
2,689.403,119139
2,687.809,119089
2,686.215,118839
2,684.621,118603
2,683.027,118797
2,681.432,118811
2,679.837,118447
2,678.242,118473
2,676.646,118145
2,675.05,117949
2,673.453,117933
2,671.857,117859
2,670.26,117710
2,668.662,117592
2,667.064,117645
2,665.466,117643
2,663.868,117272
2,662.269,117269
2,660.67,117068
2,659.07,116947
2,657.471,116849
2,655.87,116739
2,654.27,116589
2,652.669,116348
2,651.068,116693
2,649.466,116274
2,647.865,116148
2,646.262,116180
2,644.66,115891
2,643.057,115972
2,641.454,115609
2,639.85,115749
2,638.247,115526
2,636.642,115444
2,635.038,115456
2,633.433,115141
2,631.828,115116
2,630.222,114934
2,628.616,115063
2,627.01,114715
2,625.403,114736
2,623.796,114404
2,622.189,114351
2,620.582,114129
2,618.974,114143
2,617.365,113920
2,615.757,113724
2,614.148,113801
2,612.538,113866
2,610.929,113552
2,609.319,113408
2,607.708,113304
2,606.098,113267
2,604.487,113199
2,602.875,112709
2,601.264,113014
2,599.652,112836
2,598.039,112781
2,596.426,112542
2,594.813,112283
2,593.2,112262
2,591.586,112293
2,589.972,112025
2,588.358,111966
2,586.743,111812
2,585.128,111666
2,583.512,111501
2,581.897,111579
2,580.28,111475
2,578.664,111420
2,577.047,111272
2,575.43,111095
2,573.812,110962
2,572.194,110817
2,570.576,110538
2,568.958,110820
2,567.339,110597
2,565.72,110406
2,564.1,110193
2,562.48,110391
2,560.86,110359
2,559.239,110070
2,557.618,109929
2,555.997,109889
2,554.375,109701
2,552.753,109410
2,551.131,109445
2,549.508,109297
2,547.885,109236
2,546.262,109276
2,544.638,109111
2,543.014,108843
2,541.389,108744
2,539.765,108647
2,538.14,108506
2,536.514,108577
2,534.888,108487
2,533.262,108532
2,531.636,108427
2,530.009,107942
2,528.382,108235
2,526.754,107824
2,525.126,107748
2,523.498,107940
2,521.869,107637
2,520.24,107203
2,518.611,107416
2,516.982,107285
2,515.352,107172
2,513.721,107056
2,512.091,107052
2,510.46,106789
2,508.828,106801
2,507.197,106666
2,505.565,106383
2,503.932,106386
2,502.299,106167
2,500.666,105979
2,499.033,106251
2,497.399,106114
2,495.765,105804
2,494.13,105686
2,492.496,105921
2,490.86,105334
2,489.225,105362
2,487.589,105435
2,485.953,105138
2,484.316,105002
2,482.679,105198
2,481.042,104998
2,479.404,104846
2,477.766,104692
2,476.128,104794
2,474.489,104573
2,472.85,104524
2,471.211,104266
2,469.571,104188
2,467.931,104283
2,466.29,104033
2,464.65,104004
2,463.008,103843
2,461.367,103645
2,459.725,103562
2,458.083,103539
2,456.44,103556
2,454.797,103340
2,453.154,103308
2,451.511,103219
2,449.867,103180
2,448.222,102935
2,446.578,102691
2,444.933,102686
2,443.287,102533
2,441.642,102426
2,439.995,102495
2,438.349,102085
2,436.702,102238
2,435.055,102108
2,433.408,102021
2,431.76,101884
2,430.112,101878
2,428.463,101671
2,426.814,101433
2,425.165,101531
2,423.515,101293
2,421.865,101179
2,420.215,101248
2,418.564,101144
2,416.913,101024
2,415.262,100974
2,413.61,100786
2,411.958,100744
2,410.306,100782
2,408.653,100534
2,407,100381
2,405.346,100258
2,403.692,100174
2,402.038,100057
2,400.383,99958
2,398.729,99910
2,397.073,99906
2,395.418,99599
2,393.762,99597
2,392.105,99713
2,390.449,99598
2,388.791,99270
2,387.134,99122
2,385.476,99130
2,383.818,99130
2,382.16,98939
2,380.501,99134
2,378.842,98647
2,377.182,98676
2,375.522,98539
2,373.862,98629
2,372.201,98398
2,370.54,98441
2,368.879,98296
2,367.217,98077
2,365.555,98071
2,363.893,97735
2,362.23,97700
2,360.567,97795
2,358.903,97689
2,357.239,97521
2,355.575,97588
2,353.911,97443
2,352.246,97298
2,350.58,97255
2,348.915,97156
2,347.249,97001
2,345.582,96970
2,343.916,97083
2,342.249,96675
2,340.581,96694
2,338.913,96691
2,337.245,96530
2,335.577,96438
2,333.908,96237
2,332.238,96168
2,330.569,96110
2,328.899,95980
2,327.229,95826
2,325.558,95798
2,323.887,95808
2,322.215,95604
2,320.544,95749
2,318.871,95472
2,317.199,95433
2,315.526,95252
2,313.853,94996
2,312.179,95087
2,310.505,95063
2,308.831,94914
2,307.156,94846
2,305.481,94875
2,303.806,94684
2,302.13,94526
2,300.454,94658
2,298.778,94354
2,297.101,94460
2,295.424,94269
2,293.746,94105
2,292.068,94080
2,290.39,93809
2,288.711,93789
2,287.032,93863
2,285.353,93723
2,283.673,93552
2,281.993,93848
2,280.312,93445
2,278.632,93398
2,276.95,93147
2,275.269,93183
2,273.587,93032
2,271.905,93270
2,270.222,92950
2,268.539,92819
2,266.856,92823
2,265.172,92652
2,263.488,92544
2,261.803,92499
2,260.118,92442
2,258.433,92532
2,256.748,92258
2,255.062,92375
2,253.375,92074
2,251.689,92017
2,250.002,91926
2,248.314,91813
2,246.626,91758
2,244.938,91660
2,243.25,91603
2,241.561,91463
2,239.872,91427
2,238.182,91386
2,236.492,91331
2,234.802,91286
2,233.111,91094
2,231.42,91035
2,229.729,91104
2,228.037,91015
2,226.345,90933
2,224.652,90718
2,222.959,90631
2,221.266,90588
2,219.572,90524
2,217.878,90380
2,216.184,90183
2,214.489,90285
2,212.794,90200
2,211.098,90076
2,209.403,89982
2,207.706,89893
2,206.01,89662
2,204.313,89756
2,202.615,89770
2,200.918,89483
2,199.22,89643
2,197.521,89403
2,195.822,89425
2,194.123,89220
2,192.424,89129
2,190.724,89073
2,189.023,89049
2,187.323,88849
2,185.622,88869
2,183.92,88791
2,182.219,88703
2,180.516,88637
2,178.814,88552
2,177.111,88614
2,175.408,88446
2,173.704,88376
2,172,88273
2,170.296,88229
2,168.591,88302
2,166.886,88036
2,165.18,87919
2,163.474,87971
2,161.768,87863
2,160.062,87784
2,158.355,87759
2,156.647,87677
2,154.94,87553
2,153.231,87430
2,151.523,87346
2,149.814,87320
2,148.105,87258
2,146.395,87164
2,144.685,87125
2,142.975,87113
2,141.264,87118
2,139.553,87009
2,137.842,86774
2,136.13,86761
2,134.418,86714
2,132.705,86554
2,130.992,86431
2,129.279,86349
2,127.565,86334
2,125.851,86292
2,124.137,86261
2,122.422,86181
2,120.707,85982
2,118.991,86119
2,117.275,85942
2,115.559,85930
2,113.842,85794
2,112.125,85717
2,110.407,85606
2,108.69,85610
2,106.971,85554
2,105.253,85604
2,103.534,85397
2,101.815,85160
2,100.095,85249
2,98.3747,84992
2,96.6542,85009
2,94.9334,84960
2,93.2122,84904
2,91.4906,84846
2,89.7686,84759
2,88.0462,84660
2,86.3235,84561
2,84.6004,84546
2,82.8769,84368
2,81.153,84251
2,79.4288,84198
2,77.7041,84283
2,75.9791,84032
2,74.2538,84142
2,72.528,83823
2,70.8019,83784
2,69.0753,83712
2,67.3484,83737
2,65.6212,83582
2,63.8935,83585
2,62.1655,83432
2,60.4371,83335
2,58.7083,83246
2,56.9791,83092
2,55.2495,82964
2,53.5196,83070
2,51.7893,82795
2,50.0586,82930
2,48.3275,82725
2,46.5961,82598
2,44.8642,82534
2,43.132,82442
2,41.3994,82412
2,39.6665,82388
2,37.9331,82091
2,36.1994,81992
2,34.4652,81921
2,32.7307,81919
2,30.9958,81814
2,29.2606,81744
2,27.5249,81452
2,25.7889,81439
2,24.0525,81469
2,22.3157,81441
2,20.5785,81339
2,18.841,81134
2,17.103,81189
2,15.3647,81031
2,13.626,80957
2,11.8869,80736
2,10.1474,80663
2,8.40756,80651
2,6.66732,80367
2,4.92669,80418
2,3.18569,80189
2,1.44429,80173
2,-0.297481,79973
2,-2.03964,79839
2,-3.78218,79878
2,-5.52511,79666
2,-7.26843,79402
2,-9.01212,79457
2,-10.7562,79223
2,-12.5007,79168
2,-14.2455,79115
2,-15.9908,78961
2,-17.7364,78941
2,-19.4824,78734
2,-21.2288,78652
2,-22.9756,78563
2,-24.7227,78244
2,-26.4703,78219
2,-28.2182,78104
2,-29.9665,78087
2,-31.7152,77928
2,-33.4643,77785
2,-35.2138,77641
2,-36.9637,77588
2,-38.7139,77327
2,-40.4646,77264
2,-42.2156,77241
2,-43.967,77022
2,-45.7188,76908
2,-47.471,76834
2,-49.2236,76688
2,-50.9765,76573
2,-52.7299,76435
2,-54.4836,76242
2,-56.2378,76332
2,-57.9923,76069
2,-59.7472,75972
2,-61.5025,75790
2,-63.2582,75649
2,-65.0142,75500
2,-66.7707,75800
