1,1981.76,126659
1,1980.43,126880
1,1979.09,127320
1,1977.76,127932
1,1976.43,128428
1,1975.09,128958
1,1973.76,129129
1,1972.43,129453
1,1971.09,130022
1,1969.76,130310
1,1968.42,131142
1,1967.09,131418
1,1965.75,131658
1,1964.42,132337
1,1963.08,132751
1,1961.74,133178
1,1960.41,133596
1,1959.07,133873
1,1957.73,134036
1,1956.4,134537
1,1955.06,134869
1,1953.72,135514
1,1952.38,135600
1,1951.04,135888
1,1949.71,136484
1,1948.37,136499
1,1947.03,136762
1,1945.69,136508
1,1944.35,137121
1,1943.01,137132
1,1941.67,137520
1,1940.33,138085
1,1938.99,138156
1,1937.65,138338
1,1936.31,138996
1,1934.97,139389
1,1933.62,139458
1,1932.28,139539
1,1930.94,140329
1,1929.6,139983
1,1928.26,140172
1,1926.91,140530
1,1925.57,140904
1,1924.23,141304
1,1922.88,141363
1,1921.54,141795
1,1920.19,141982
1,1918.85,142179
1,1917.51,142587
1,1916.16,142582
1,1914.82,142963
1,1913.47,143205
1,1912.12,143370
1,1910.78,143589
1,1909.43,143603
1,1908.09,144014
1,1906.74,144469
1,1905.39,144694
1,1904.04,144833
1,1902.7,144968
1,1901.35,145275
1,1900,145652
1,1898.65,145441
1,1897.3,145998
1,1895.95,146504
1,1894.61,146150
1,1893.26,146296
1,1891.91,146803
1,1890.56,146760
1,1889.21,147171
1,1887.86,147149
1,1886.51,147302
1,1885.15,147552
1,1883.8,147294
1,1882.45,147992
1,1881.1,148011
1,1879.75,148205
1,1878.4,148233
1,1877.04,148177
1,1875.69,148435
1,1874.34,148618
1,1872.98,148703
1,1871.63,148757
1,1870.28,148840
1,1868.92,148892
1,1867.57,149206
1,1866.21,149070
1,1864.86,148989
1,1863.5,149208
1,1862.15,148665
1,1860.79,148556
1,1859.44,148195
1,1858.08,147756
1,1856.72,147407
1,1855.37,146995
1,1854.01,146003
1,1852.65,144936
1,1851.29,143976
1,1849.94,142361
1,1848.58,140238
1,1847.22,138289
1,1845.86,135734
1,1844.5,133031
1,1843.14,130304
1,1841.78,127479
1,1840.42,124298
1,1839.06,121584
1,1837.7,118737
1,1836.34,115997
1,1834.98,113271
1,1833.62,110877
1,1832.26,108527
1,1830.9,105928
1,1829.54,103735
1,1828.18,101591
1,1826.81,98922
1,1825.45,96206
1,1824.09,93624
1,1822.73,90803
1,1821.36,88020
1,1820,85319
1,1818.63,82957
1,1817.27,80687
1,1815.91,78594
1,1814.54,76654
1,1813.18,74996
1,1811.81,73720
1,1810.45,72431
1,1809.08,71380
1,1807.71,70416
1,1806.35,69703
1,1804.98,68981
1,1803.61,68439
1,1802.25,68024
1,1800.88,67674
1,1799.51,67318
1,1798.14,67032
1,1796.78,66807
1,1795.41,66579
1,1794.04,66446
1,1792.67,66220
1,1791.3,66166
1,1789.93,65999
1,1788.56,65909
1,1787.19,65818
1,1785.82,65787
1,1784.45,65738
1,1783.08,65693
1,1781.71,65713
1,1780.34,65604
1,1778.96,65644
1,1777.59,65589
1,1776.22,65613
1,1774.85,65544
1,1773.48,65570
1,1772.1,65548
1,1770.73,65523
1,1769.36,65525
1,1767.98,65495
1,1766.61,65461
1,1765.23,65506
1,1763.86,65475
1,1762.48,65482
1,1761.11,65449
1,1759.73,65436
1,1758.36,65440
1,1756.98,65448
1,1755.61,65397
1,1754.23,65477
1,1752.85,65475
1,1751.47,65495
1,1750.1,65432
1,1748.72,65456
1,1747.34,65475
1,1745.96,65431
1,1744.59,65382
1,1743.21,65490
1,1741.83,65429
1,1740.45,65470
1,1739.07,65490
1,1737.69,65500
1,1736.31,65509
1,1734.93,65439
1,1733.55,65530
1,1732.17,65531
1,1730.79,65574
1,1729.41,65493
1,1728.02,65530
1,1726.64,65586
1,1725.26,65610
1,1723.88,65586
1,1722.49,65583
1,1721.11,65614
1,1719.73,65676
1,1718.34,65627
1,1716.96,65656
1,1715.58,65738
1,1714.19,65752
1,1712.81,65760
1,1711.42,65788
1,1710.04,65792
1,1708.65,65783
1,1707.27,65877
1,1705.88,65830
1,1704.49,65816
1,1703.11,65782
1,1701.72,65786
1,1700.33,65823
1,1698.95,65878
1,1697.56,65872
1,1696.17,65956
1,1694.78,65954
1,1693.39,66104
1,1692.01,66186
1,1690.62,66286
1,1689.23,66465
1,1687.84,66690
1,1686.45,66950
1,1685.06,67219
1,1683.67,67653
1,1682.28,68038
1,1680.89,68610
1,1679.49,69067
1,1678.1,69765
1,1676.71,70366
1,1675.32,71010
1,1673.93,71821
1,1672.53,72878
1,1671.14,74022
1,1669.75,75390
1,1668.36,76818
1,1666.96,78262
1,1665.57,79504
1,1664.17,80962
1,1662.78,82444
1,1661.38,84127
1,1659.99,86324
1,1658.59,88533
1,1657.2,91055
1,1655.8,93060
1,1654.41,94999
1,1653.01,96883
1,1651.61,98315
1,1650.22,100477
1,1648.82,103008
1,1647.42,105861
1,1646.02,108572
1,1644.63,111324
1,1643.23,112832
1,1641.83,114783
1,1640.43,116481
1,1639.03,118017
1,1637.63,119919
1,1636.23,122065
1,1634.83,124059
1,1633.43,126569
1,1632.03,128114
1,1630.63,129867
1,1629.23,130829
1,1627.83,131777
1,1626.43,133097
1,1625.02,134639
1,1623.62,136172
1,1622.22,137469
1,1620.82,139354
1,1619.41,140508
1,1618.01,141411
1,1616.61,142284
1,1615.2,142921
1,1613.8,143931
1,1612.39,145168
1,1610.99,146561
1,1609.58,147378
1,1608.18,148711
1,1606.77,149663
1,1605.37,150766
1,1603.96,151596
1,1602.56,151941
1,1601.15,152966
1,1599.74,153437
1,1598.33,154456
1,1596.93,155389
1,1595.52,156610
1,1594.11,157332
1,1592.7,158591
1,1591.29,158865
1,1589.89,159597
1,1588.48,159863
1,1587.07,160718
1,1585.66,161173
1,1584.25,161805
1,1582.84,163022
1,1581.43,163545
1,1580.02,164077
1,1578.6,164773
1,1577.19,165226
1,1575.78,165746
1,1574.37,165917
1,1572.96,166375
1,1571.54,166206
1,1570.13,166916
1,1568.72,167619
1,1567.3,168005
1,1565.89,168956
1,1564.48,169687
1,1563.06,169399
1,1561.65,169731
1,1560.23,169535
1,1558.82,169625
1,1557.4,170021
1,1555.99,170170
1,1554.57,170689
1,1553.16,170788
1,1551.74,171199
1,1550.32,171460
1,1548.91,171686
1,1547.49,171905
1,1546.07,172388
1,1544.65,172237
1,1543.23,172062
1,1541.82,172051
1,1540.4,172497
1,1538.98,172285
1,1537.56,173149
1,1536.14,173019
1,1534.72,173203
1,1533.3,173137
1,1531.88,173317
1,1530.46,173404
1,1529.04,173546
1,1527.62,173184
1,1526.19,173269
1,1524.77,173561
1,1523.35,173524
1,1521.93,173846
1,1520.51,173491
1,1519.08,173882
1,1517.66,173562
1,1516.24,173701
1,1514.81,173780
1,1513.39,173624
1,1511.96,173479
1,1510.54,173721
1,1509.11,173632
1,1507.69,173770
1,1506.26,173591
1,1504.84,173933
1,1503.41,173601
1,1501.98,173768
1,1500.56,173522
1,1499.13,173636
1,1497.7,173541
1,1496.28,173373
1,1494.85,173441
1,1493.42,173496
1,1491.99,173581
1,1490.56,173527
1,1489.13,173486
1,1487.71,173054
1,1486.28,172816
1,1484.85,173385
1,1483.42,172915
1,1481.99,173018
1,1480.55,172718
1,1479.12,172875
1,1477.69,172798
1,1476.26,172789
1,1474.83,172944
1,1473.4,172587
1,1471.96,172505
1,1470.53,172949
1,1469.1,172786
1,1467.67,172791
1,1466.23,172517
1,1464.8,172475
1,1463.36,172347
1,1461.93,172609
1,1460.5,172109
1,1459.06,172267
1,1457.63,172343
1,1456.19,172294
1,1454.75,172121
1,1453.32,172203
1,1451.88,172187
1,1450.44,172023
1,1449.01,171665
1,1447.57,171577
1,1446.13,171542
1,1444.7,171585
1,1443.26,171215
1,1441.82,171366
1,1440.38,171365
1,1438.94,171583
1,1437.5,171142
1,1436.06,171128
1,1434.62,171044
1,1433.18,171101
1,1431.74,170644
1,1430.3,171212
1,1428.86,170625
1,1427.42,170915
1,1425.98,170820
1,1424.54,170455
1,1423.09,170677
1,1421.65,170559
1,1420.21,170565
1,1418.77,170247
1,1417.32,170325
1,1415.88,170199
1,1414.43,170116
1,1412.99,170168
1,1411.55,169922
1,1410.1,169625
1,1408.66,169665
1,1407.21,169783
1,1405.76,169483
1,1404.32,169795
1,1402.87,169519
1,1401.43,169396
1,1399.98,169473
1,1398.53,169494
1,1397.09,169182
1,1395.64,169418
1,1394.19,169282
1,1392.74,169273
1,1391.29,169101
1,1389.84,168972
1,1388.39,169083
1,1386.95,168987
1,1385.5,168477
1,1384.05,168182
1,1382.6,168721
1,1381.14,168510
1,1379.69,168534
1,1378.24,168456
1,1376.79,168048
1,1375.34,168245
1,1373.89,167823
1,1372.44,168217
1,1370.98,168132
1,1369.53,167920
1,1368.08,167712
1,1366.62,167617
1,1365.17,167728
1,1363.71,167470
1,1362.26,167521
1,1360.81,167417
1,1359.35,167164
1,1357.9,167411
1,1356.44,167050
1,1354.98,167260
1,1353.53,167401
1,1352.07,166467
1,1350.61,166820
1,1349.16,166540
1,1347.7,166412
1,1346.24,166451
1,1344.79,166692
1,1343.33,166866
1,1341.87,166515
1,1340.41,166317
1,1338.95,166398
1,1337.49,166034
1,1336.03,166135
1,1334.57,165637
1,1333.11,165944
1,1331.65,165752
1,1330.19,165742
1,1328.73,165893
1,1327.27,165539
1,1325.81,165437
1,1324.34,165411
1,1322.88,165270
1,1321.42,165090
1,1319.96,165180
1,1318.49,165261
1,1317.03,165005
1,1315.57,164851
1,1314.1,164703
1,1312.64,164661
1,1311.17,164600
1,1309.71,164461
1,1308.24,164312
1,1306.78,164369
1,1305.31,164174
1,1303.84,164262
1,1302.38,163989
1,1300.91,163953
1,1299.44,163783
1,1297.98,163187
1,1296.51,163629
1,1295.04,163592
1,1293.57,163109
1,1292.1,163273
1,1290.64,163516
1,1289.17,163257
1,1287.7,163003
1,1286.23,163214
1,1284.76,162764
1,1283.29,163083
1,1281.82,162815
1,1280.34,162921
1,1278.87,162511
1,1277.4,162358
1,1275.93,162535
1,1274.46,162699
1,1272.99,162023
1,1271.51,162229
1,1270.04,162036
1,1268.57,162147
1,1267.09,162012
1,1265.62,161832
1,1264.14,161609
1,1262.67,161432
1,1261.2,161282
1,1259.72,161440
1,1258.25,160822
1,1256.77,161126
1,1255.29,161372
1,1253.82,161382
1,1252.34,160940
1,1250.86,160721
1,1249.39,160659
1,1247.91,160354
1,1246.43,160385
1,1244.95,160335
1,1243.47,160628
1,1242,160140
1,1240.52,160448
1,1239.04,159936
1,1237.56,159947
1,1236.08,159473
1,1234.6,159512
1,1233.12,159498
1,1231.64,159764
1,1230.16,159325
1,1228.67,159277
1,1227.19,159261
1,1225.71,159256
1,1224.23,158891
1,1222.75,158740
1,1221.26,158678
1,1219.78,158572
1,1218.3,158519
1,1216.81,158439
1,1215.33,158390
1,1213.84,158179
1,1212.36,157702
1,1210.87,157895
1,1209.39,157514
1,1207.9,157584
1,1206.42,157653
1,1204.93,157417
1,1203.44,157529
1,1201.96,157353
1,1200.47,157218
1,1198.98,157052
1,1197.49,157076
1,1196.01,156939
1,1194.52,156727
1,1193.03,156306
1,1191.54,156444
1,1190.05,156567
1,1188.56,156485
1,1187.07,156086
1,1185.58,156154
1,1184.09,156119
1,1182.6,155987
1,1181.11,155674
1,1179.62,155661
1,1178.13,155418
1,1176.63,155782
1,1175.14,155392
1,1173.65,155015
1,1172.16,154851
1,1170.66,155013
1,1169.17,155304
1,1167.68,154887
1,1166.18,154517
1,1164.69,154508
1,1163.19,154466
1,1161.7,154518
1,1160.2,154252
1,1158.71,154252
1,1157.21,154343
1,1155.71,154146
1,1154.22,154042
1,1152.72,153896
1,1151.22,153810
1,1149.73,153601
1,1148.23,153412
1,1146.73,153279
1,1145.23,153092
1,1143.73,152998
1,1142.23,152914
1,1140.73,152959
1,1139.23,152923
1,1137.73,152701
1,1136.23,152787
1,1134.73,152643
1,1133.23,152157
1,1131.73,152257
1,1130.23,152227
1,1128.73,152087
1,1127.23,152020
1,1125.72,151937
1,1124.22,151566
1,1122.72,151849
1,1121.21,151574
1,1119.71,151325
1,1118.21,151459
1,1116.7,151471
1,1115.2,151149
1,1113.69,150885
1,1112.19,150937
1,1110.68,150598
1,1109.18,150219
1,1107.67,150583
1,1106.16,150213
1,1104.66,150303
1,1103.15,150267
1,1101.64,150036
1,1100.14,149808
1,1098.63,150019
1,1097.12,149594
1,1095.61,149289
1,1094.1,149451
1,1092.59,149582
1,1091.08,149206
1,1089.57,149416
1,1088.06,149265
1,1086.55,149287
1,1085.04,149057
1,1083.53,148904
1,1082.02,148660
1,1080.51,148669
1,1079,148553
1,1077.48,148650
1,1075.97,148321
1,1074.46,148387
1,1072.94,148006
1,1071.43,147815
1,1069.92,147855
1,1068.4,147858
1,1066.89,147921
1,1065.37,147486
1,1063.86,147437
1,1062.34,147312
1,1060.83,147231
1,1059.31,147167
1,1057.8,146976
1,1056.28,146777
1,1054.76,146787
1,1053.24,146709
1,1051.73,146385
1,1050.21,146173
1,1048.69,146339
1,1047.17,146453
1,1045.65,146244
1,1044.13,145787
1,1042.61,145890
1,1041.09,145611
1,1039.57,145543
1,1038.05,145538
1,1036.53,145402
1,1035.01,145588
1,1033.49,145164
1,1031.97,144956
1,1030.45,145103
1,1028.93,144914
1,1027.4,144693
1,1025.88,144384
1,1024.36,144543
1,1022.83,144305
1,1021.31,144463
1,1019.78,144385
1,1018.26,144210
1,1016.74,143763
1,1015.21,144045
1,1013.68,143770
1,1012.16,143419
1,1010.63,143518
1,1009.11,143453
1,1007.58,143413
1,1006.05,143119
1,1004.53,143298
1,1003,143065
1,1001.47,142919
1,999.942,142624
1,998.413,142558
1,996.884,142658
1,995.355,142211
1,993.825,142016
1,992.296,142002
1,990.765,141712
1,989.235,141684
1,987.704,141730
1,986.173,141621
1,984.642,141314
1,983.11,141310
1,981.578,141339
1,980.045,141079
1,978.513,140705
1,976.98,140971
1,975.446,140837
1,973.913,140674
1,972.379,140730
1,970.844,140379
1,969.31,140260
1,967.775,140101
1,966.24,140187
1,964.704,139921
1,963.168,139942
1,961.632,139767
1,960.095,139614
1,958.559,139608
1,957.021,139244
1,955.484,139376
1,953.946,139352
1,952.408,139011
1,950.87,138946
1,949.331,138729
1,947.792,138562
1,946.253,138127
1,944.713,138493
1,943.173,138036
1,941.632,138051
1,940.092,138257
1,938.551,137824
1,937.01,137744
1,935.468,137596
1,933.926,137658
1,932.384,137266
1,930.841,137621
1,929.298,137380
1,927.755,136909
1,926.211,136896
1,924.668,136857
1,923.123,137133
1,921.579,136765
1,920.034,136558
1,918.489,136227
1,916.944,136255
1,915.398,135800
1,913.852,136082
1,912.305,135969
1,910.758,135582
1,909.211,135379
1,907.664,135410
1,906.116,135368
1,904.568,135381
1,903.02,134842
1,901.471,134836
1,899.922,134907
1,898.373,134703
1,896.823,134622
1,895.273,134897
1,893.723,134351
1,892.172,133994
1,890.621,134285
1,889.07,134028
1,887.519,133983
1,885.967,133949
1,884.415,133905
1,882.862,133532
1,881.309,133347
1,879.756,133452
1,878.202,133056
1,876.649,133302
1,875.094,132860
1,873.54,132848
1,871.985,132778
1,870.43,132623
1,868.875,132484
1,867.319,132464
1,865.763,132539
1,864.206,132361
1,862.649,132216
1,861.092,131712
1,859.535,132111
1,857.977,131738
1,856.419,131675
1,854.861,131451
1,853.302,131223
1,851.743,131189
1,850.184,131258
1,848.624,130980
1,847.064,130938
1,845.504,130746
1,843.943,130541
1,842.382,130471
1,840.821,130294
1,839.259,130072
1,837.697,130415
1,836.135,129794
1,834.572,129907
1,833.009,129655
1,831.446,129557
1,829.882,129487
1,828.319,129575
1,826.754,129159
1,825.19,128994
1,823.625,128864
1,822.06,129058
1,820.494,128830
1,818.928,128836
1,817.362,128533
1,815.795,128390
1,814.229,128688
1,812.661,128415
1,811.094,127940
1,809.526,128077
1,807.958,127844
1,806.389,127976
1,804.821,127272
1,803.251,127446
1,801.682,127396
1,800.112,127007
1,798.542,126995
1,796.971,127091
1,795.401,126818
1,793.83,126562
1,792.258,126669
1,790.686,126388
1,789.114,126459
1,787.542,126185
1,785.969,126282
1,784.396,126217
1,782.822,125771
1,781.249,125802
1,779.675,125887
1,778.1,125540
1,776.525,125511
1,774.95,125391
1,773.375,125301
1,771.799,125246
1,770.223,125104
1,768.647,124966
1,767.07,124921
1,765.493,124753
1,763.915,124739
1,762.338,124673
1,760.76,124540
1,759.181,124134
1,757.603,124368
1,756.023,124070
1,754.444,124023
1,752.864,123840
1,751.284,123765
1,749.704,123621
1,748.123,123290
1,746.542,123197
1,744.961,123066
1,743.379,123037
1,741.797,122796
1,740.215,122946
1,738.632,122730
1,737.049,122618
1,735.466,122486
1,733.882,122291
1,732.298,122123
1,730.713,122192
1,729.129,122094
1,727.544,122284
1,725.958,121943
1,724.373,121991
1,722.787,121694
1,721.2,121485
1,719.614,121697
1,718.027,121304
1,716.439,121212
1,714.851,121064
1,713.263,120857
1,711.675,120660
1,710.086,120716
1,708.497,120507
1,706.908,120388
1,705.318,120358
1,703.728,120156
1,702.138,120255
1,700.547,120109
1,698.956,119893
1,697.365,119648
1,695.773,119528
1,694.181,119482
1,692.588,119291
1,690.996,119334
1,689.403,119244
1,687.809,118814
1,686.215,118890
1,684.621,118863
1,683.027,118595
1,681.432,118644
1,679.837,118529
1,678.242,118381
1,676.646,118206
1,675.05,117887
1,673.453,118032
1,671.857,117983
1,670.26,117903
1,668.662,117716
1,667.064,117326
1,665.466,117370
1,663.868,117147
1,662.269,117338
1,660.67,116969
1,659.07,117138
1,657.471,117004
1,655.87,116695
1,654.27,116684
1,652.669,116438
1,651.068,116512
1,649.466,116424
1,647.865,116066
1,646.262,116237
1,644.66,116088
1,643.057,115900
1,641.454,115771
1,639.85,115485
1,638.247,115441
1,636.642,115350
1,635.038,115139
1,633.433,115196
1,631.828,115115
1,630.222,114912
1,628.616,114895
1,627.01,114696
1,625.403,114656
1,623.796,114553
1,622.189,114463
1,620.582,114400
1,618.974,113972
1,617.365,114043
1,615.757,113750
1,614.148,113613
1,612.538,113657
1,610.929,113445
1,609.319,113610
1,607.708,113160
1,606.098,113191
1,604.487,113036
1,602.875,112816
1,601.264,113011
1,599.652,112769
1,598.039,112604
1,596.426,112517
1,594.813,112390
1,593.2,112100
1,591.586,112124
1,589.972,112062
1,588.358,111881
1,586.743,111876
1,585.128,111591
1,583.512,111658
1,581.897,111817
1,580.28,111529
1,578.664,111259
1,577.047,111372
1,575.43,111097
1,573.812,111008
1,572.194,111155
1,570.576,110796
1,568.958,110644
1,567.339,110690
1,565.72,110460
1,564.1,110345
1,562.48,110339
1,560.86,110022
1,559.239,110032
1,557.618,110011
1,555.997,109575
1,554.375,109890
1,552.753,109575
1,551.131,109500
1,549.508,109278
1,547.885,108960
1,546.262,109014
1,544.638,109074
1,543.014,109057
1,541.389,108829
1,539.765,108734
1,538.14,108565
1,536.514,108571
1,534.888,108469
1,533.262,108477
1,531.636,108283
1,530.009,108150
1,528.382,107984
1,526.754,107845
1,525.126,107926
1,523.498,107573
1,521.869,107535
1,520.24,107463
1,518.611,107529
1,516.982,107238
1,515.352,107270
1,513.721,106937
1,512.091,107172
1,510.46,106797
1,508.828,106570
1,507.197,106649
1,505.565,106602
1,503.932,106421
1,502.299,106312
1,500.666,106202
1,499.033,106115
1,497.399,105940
1,495.765,105877
1,494.13,105820
1,492.496,105614
1,490.86,105357
1,489.225,105576
1,487.589,105242
1,485.953,105387
1,484.316,105153
1,482.679,105100
1,481.042,104964
1,479.404,104728
1,477.766,104905
1,476.128,104487
1,474.489,104299
1,472.85,104529
1,471.211,104343
1,469.571,104053
1,467.931,104127
1,466.29,103814
1,464.65,103888
1,463.008,103804
1,461.367,103725
1,459.725,103649
1,458.083,103448
1,456.44,103508
1,454.797,103158
1,453.154,103168
1,451.511,103023
1,449.867,103074
1,448.222,102593
1,446.578,102842
1,444.933,102680
1,443.287,102469
1,441.642,102319
1,439.995,102559
1,438.349,102134
1,436.702,102135
1,435.055,102085
1,433.408,101890
1,431.76,101758
1,430.112,101704
1,428.463,101608
1,426.814,101624
1,425.165,101400
1,423.515,101365
1,421.865,101190
1,420.215,101046
1,418.564,100993
1,416.913,101082
1,415.262,100747
1,413.61,100744
1,411.958,100854
1,410.306,100552
1,408.653,100535
1,407,100355
1,405.346,100297
1,403.692,100250
1,402.038,100181
1,400.383,99973
1,398.729,99792
1,397.073,99770
1,395.418,99649
1,393.762,99758
1,392.105,99540
1,390.449,99664
1,388.791,99465
1,387.134,99158
1,385.476,99245
1,383.818,99086
1,382.16,98946
1,380.501,99047
1,378.842,98909
1,377.182,98644
1,375.522,98685
1,373.862,98491
1,372.201,98487
1,370.54,98154
1,368.879,98250
1,367.217,98059
1,365.555,98215
1,363.893,97885
1,362.23,97746
1,360.567,97659
1,358.903,97771
1,357.239,97836
1,355.575,97551
1,353.911,97376
1,352.246,97260
1,350.58,97142
1,348.915,97213
1,347.249,97037
1,345.582,96671
1,343.916,96814
1,342.249,96744
1,340.581,96667
1,338.913,96640
1,337.245,96508
1,335.577,96540
1,333.908,96354
1,332.238,96172
1,330.569,96147
1,328.899,95928
1,327.229,95952
1,325.558,95823
1,323.887,95791
1,322.215,95770
1,320.544,95516
1,318.871,95564
1,317.199,95496
1,315.526,95207
1,313.853,95252
1,312.179,95026
1,310.505,95210
1,308.831,94927
1,307.156,94886
1,305.481,94765
1,303.806,94645
1,302.13,94692
1,300.454,94638
1,298.778,94439
1,297.101,94364
1,295.424,94137
1,293.746,93947
1,292.068,94065
1,290.39,94056
1,288.711,94050
1,287.032,93728
1,285.353,93816
1,283.673,93763
1,281.993,93615
1,280.312,93363
1,278.632,93358
1,276.95,93103
1,275.269,93233
1,273.587,93232
1,271.905,92904
1,270.222,92988
1,268.539,92795
1,266.856,92713
1,265.172,92664
1,263.488,92637
1,261.803,92609
1,260.118,92460
1,258.433,92245
1,256.748,92179
1,255.062,92118
1,253.375,92018
1,251.689,91899
1,250.002,91899
1,248.314,91786
1,246.626,91788
1,244.938,91695
1,243.25,91709
1,241.561,91492
1,239.872,91501
1,238.182,91304
1,236.492,91207
1,234.802,91117
1,233.111,91256
1,231.42,90974
1,229.729,91016
1,228.037,90795
1,226.345,90644
1,224.652,90563
1,222.959,90716
1,221.266,90730
1,219.572,90460
1,217.878,90493
1,216.184,90153
1,214.489,90286
1,212.794,89956
1,211.098,89990
1,209.403,89863
1,207.706,89857
1,206.01,89806
1,204.313,89798
1,202.615,89728
1,200.918,89550
1,199.22,89563
1,197.521,89339
1,195.822,89259
1,194.123,89180
1,192.424,89029
1,190.724,89000
1,189.023,88882
1,187.323,88992
1,185.622,89035
1,183.92,88947
1,182.219,88713
1,180.516,88676
1,178.814,88417
1,177.111,88590
1,175.408,88416
1,173.704,88349
1,172,88206
1,170.296,88262
1,168.591,88144
1,166.886,88005
1,165.18,88035
1,163.474,87941
1,161.768,87827
1,160.062,87717
1,158.355,87716
1,156.647,87573
1,154.94,87470
1,153.231,87539
1,151.523,87357
1,149.814,87472
1,148.105,87311
1,146.395,87043
1,144.685,86957
1,142.975,87053
1,141.264,87025
1,139.553,87008
1,137.842,86747
1,136.13,86770
1,134.418,86742
1,132.705,86639
1,130.992,86634
1,129.279,86596
1,127.565,86409
1,125.851,86268
1,124.137,86248
1,122.422,86199
1,120.707,85977
1,118.991,86019
1,117.275,85849
1,115.559,85915
1,113.842,85839
1,112.125,85790
1,110.407,85768
1,108.69,85596
1,106.971,85472
1,105.253,85507
1,103.534,85360
1,101.815,85272
1,100.095,85206
1,98.3747,85051
1,96.6542,85047
1,94.9334,85152
1,93.2122,84920
1,91.4906,84872
1,89.7686,84709
1,88.0462,84536
1,86.3235,84542
1,84.6004,84592
1,82.8769,84499
1,81.153,84411
1,79.4288,84204
1,77.7041,84193
1,75.9791,84097
1,74.2538,84003
1,72.528,83940
1,70.8019,83872
1,69.0753,83871
1,67.3484,83647
1,65.6212,83646
1,63.8935,83537
1,62.1655,83383
1,60.4371,83463
1,58.7083,83205
1,56.9791,83097
1,55.2495,83112
1,53.5196,82940
1,51.7893,83006
1,50.0586,82885
1,48.3275,82712
1,46.5961,82562
1,44.8642,82619
1,43.132,82540
1,41.3994,82285
1,39.6665,82170
1,37.9331,82177
1,36.1994,82029
1,34.4652,81910
1,32.7307,82007
1,30.9958,81682
1,29.2606,81789
1,27.5249,81548
1,25.7889,81494
1,24.0525,81399
1,22.3157,81271
1,20.5785,81331
1,18.841,81027
1,17.103,81113
1,15.3647,81048
1,13.626,80813
1,11.8869,80857
1,10.1474,80710
1,8.40756,80652
1,6.66732,80448
1,4.92669,80345
1,3.18569,80189
1,1.44429,80247
1,-0.297481,80104
1,-2.03964,79834
1,-3.78218,79779
1,-5.52511,79647
1,-7.26843,79544
1,-9.01212,79466
1,-10.7562,79287
1,-12.5007,79253
1,-14.2455,79060
1,-15.9908,78965
1,-17.7364,78826
1,-19.4824,78661
1,-21.2288,78511
1,-22.9756,78516
1,-24.7227,78644
1,-26.4703,78226
1,-28.2182,78149
1,-29.9665,78024
1,-31.7152,77946
1,-33.4643,77781
1,-35.2138,77664
1,-36.9637,77636
1,-38.7139,77438
1,-40.4646,77391
1,-42.2156,77169
1,-43.967,76968
1,-45.7188,77005
1,-47.471,76904
1,-49.2236,76794
1,-50.9765,76518
1,-52.7299,76466
1,-54.4836,76339
1,-56.2378,76190
1,-57.9923,76150
1,-59.7472,75955
1,-61.5025,75741
1,-63.2582,75711
1,-65.0142,75532
1,-66.7707,75787
2,1981.76,283751
2,1980.43,285205
2,1979.09,287313
2,1977.76,288444
2,1976.43,290279
2,1975.09,291928
2,1973.76,293578
2,1972.43,295129
2,1971.09,296646
2,1969.76,297552
2,1968.42,299089
2,1967.09,300468
2,1965.75,302523
2,1964.42,303060
2,1963.08,304722
2,1961.74,306147
2,1960.41,307473
2,1959.07,308660
2,1957.73,310266
2,1956.4,311673
2,1955.06,312510
2,1953.72,314092
2,1952.38,314983
2,1951.04,316404
2,1949.71,316985
2,1948.37,318298
2,1947.03,318809
2,1945.69,319900
2,1944.35,320752
2,1943.01,321278
2,1941.67,322435
2,1940.33,323641
2,1938.99,324724
2,1937.65,325473
2,1936.31,326457
2,1934.97,327779
2,1933.62,327834
2,1932.28,328844
2,1930.94,330709
2,1929.6,330945
2,1928.26,331908
2,1926.91,332908
2,1925.57,333193
2,1924.23,334369
2,1922.88,335830
2,1921.54,336216
2,1920.19,337540
2,1918.85,337716
2,1917.51,338233
2,1916.16,339467
2,1914.82,340550
2,1913.47,340947
2,1912.12,341572
2,1910.78,342420
2,1909.43,343417
2,1908.09,344288
2,1906.74,345289
2,1905.39,345713
2,1904.04,346444
2,1902.7,347415
2,1901.35,348224
2,1900,349655
2,1898.65,349977
2,1897.3,350263
2,1895.95,351654
2,1894.61,352000
2,1893.26,352483
2,1891.91,353152
2,1890.56,353637
2,1889.21,354546
2,1887.86,355741
2,1886.51,355692
2,1885.15,356600
2,1883.8,357077
2,1882.45,357858
2,1881.1,357966
2,1879.75,358367
2,1878.4,358894
2,1877.04,359490
2,1875.69,359934
2,1874.34,359985
2,1872.98,360730
2,1871.63,360985
2,1870.28,361551
2,1868.92,361999
2,1867.57,362234
2,1866.21,361741
2,1864.86,361141
2,1863.5,361388
2,1862.15,360336
2,1860.79,359852
2,1859.44,358554
2,1858.08,357022
2,1856.72,355540
2,1855.37,353987
2,1854.01,351313
2,1852.65,347765
2,1851.29,342850
2,1849.94,337748
2,1848.58,330906
2,1847.22,323280
2,1845.86,314668
2,1844.5,304642
2,1843.14,295119
2,1841.78,285143
2,1840.42,275063
2,1839.06,265248
2,1837.7,255485
2,1836.34,246458
2,1834.98,237107
2,1833.62,228403
2,1832.26,220369
2,1830.9,212397
2,1829.54,204430
2,1828.18,196010
2,1826.81,187389
2,1825.45,178257
2,1824.09,168505
2,1822.73,158985
2,1821.36,149892
2,1820,140597
2,1818.63,132323
2,1817.27,124180
2,1815.91,117142
2,1814.54,110743
2,1813.18,105502
2,1811.81,100479
2,1810.45,96300
2,1809.08,92658
2,1807.71,89383
2,1806.35,86737
2,1804.98,84560
2,1803.61,82594
2,1802.25,81054
2,1800.88,79754
2,1799.51,78557
2,1798.14,77780
2,1796.78,76869
2,1795.41,76291
2,1794.04,75583
2,1792.67,75055
2,1791.3,74592
2,1789.93,74215
2,1788.56,73952
2,1787.19,73665
2,1785.82,73485
2,1784.45,73203
2,1783.08,73194
2,1781.71,73000
2,1780.34,73033
2,1778.96,72794
2,1777.59,72787
2,1776.22,72751
2,1774.85,72636
2,1773.48,72664
2,1772.1,72602
2,1770.73,72528
2,1769.36,72518
2,1767.98,72535
2,1766.61,72418
2,1765.23,72426
2,1763.86,72351
2,1762.48,72381
2,1761.11,72414
2,1759.73,72213
2,1758.36,72261
2,1756.98,72302
2,1755.61,72200
2,1754.23,72141
2,1752.85,72200
2,1751.47,72237
2,1750.1,72211
2,1748.72,72233
2,1747.34,72076
2,1745.96,72371
2,1744.59,72325
2,1743.21,72240
2,1741.83,72328
2,1740.45,72380
2,1739.07,72352
2,1737.69,72331
2,1736.31,72365
2,1734.93,72327
2,1733.55,72429
2,1732.17,72562
2,1730.79,72611
2,1729.41,72635
2,1728.02,72589
2,1726.64,72697
2,1725.26,72770
2,1723.88,72723
2,1722.49,72791
2,1721.11,72923
2,1719.73,73032
2,1718.34,73105
2,1716.96,73203
2,1715.58,73138
2,1714.19,73247
2,1712.81,73292
2,1711.42,73372
2,1710.04,73456
2,1708.65,73477
2,1707.27,73352
2,1705.88,73418
2,1704.49,73507
2,1703.11,73415
2,1701.72,73428
2,1700.33,73543
2,1698.95,73679
2,1697.56,73697
2,1696.17,73869
2,1694.78,73976
2,1693.39,74452
2,1692.01,74857
2,1690.62,75374
2,1689.23,75968
2,1687.84,76511
2,1686.45,77515
2,1685.06,78664
2,1683.67,80069
2,1682.28,81467
2,1680.89,83129
2,1679.49,85139
2,1678.1,87235
2,1676.71,89514
2,1675.32,92206
2,1673.93,94972
2,1672.53,98336
2,1671.14,102498
2,1669.75,107189
2,1668.36,112221
2,1666.96,117011
2,1665.57,121626
2,1664.17,126169
2,1662.78,131494
2,1661.38,137654
2,1659.99,145520
2,1658.59,153721
2,1657.2,162039
2,1655.8,169316
2,1654.41,175712
2,1653.01,181461
2,1651.61,187558
2,1650.22,194751
2,1648.82,203468
2,1647.42,213245
2,1646.02,223041
2,1644.63,231336
2,1643.23,237924
2,1641.83,243773
2,1640.43,249297
2,1639.03,254864
2,1637.63,261650
2,1636.23,269130
2,1634.83,276770
2,1633.43,284119
2,1632.03,290094
2,1630.63,295193
2,1629.23,298939
2,1627.83,302752
2,1626.43,307342
2,1625.02,312827
2,1623.62,317402
2,1622.22,322481
2,1620.82,328133
2,1619.41,332258
2,1618.01,336428
2,1616.61,338882
2,1615.2,342109
2,1613.8,344908
2,1612.39,348597
2,1610.99,352383
2,1609.58,356954
2,1608.18,361151
2,1606.77,364315
2,1605.37,368839
2,1603.96,371298
2,1602.56,373404
2,1601.15,375440
2,1599.74,378164
2,1598.33,381012
2,1596.93,384058
2,1595.52,387770
2,1594.11,391153
2,1592.7,394602
2,1591.29,397513
2,1589.89,398944
2,1588.48,399395
2,1587.07,401744
2,1585.66,403495
2,1584.25,406538
2,1582.84,408785
2,1581.43,411928
2,1580.02,414633
2,1578.6,416988
2,1577.19,418840
2,1575.78,419637
2,1574.37,420239
2,1572.96,422153
2,1571.54,422735
2,1570.13,424698
2,1568.72,425950
2,1567.3,428471
2,1565.89,430154
2,1564.48,432183
2,1563.06,433460
2,1561.65,433237
2,1560.23,433247
2,1558.82,433901
2,1557.4,434330
2,1555.99,434706
2,1554.57,436335
2,1553.16,437914
2,1551.74,438413
2,1550.32,440085
2,1548.91,440277
2,1547.49,441675
2,1546.07,441394
2,1544.65,441730
2,1543.23,441936
2,1541.82,442331
2,1540.4,442939
2,1538.98,444175
2,1537.56,445061
2,1536.14,444778
2,1534.72,445180
2,1533.3,445672
2,1531.88,445798
2,1530.46,445962
2,1529.04,446717
2,1527.62,446164
2,1526.19,446443
2,1524.77,446675
2,1523.35,446678
2,1521.93,447301
2,1520.51,447087
2,1519.08,447820
2,1517.66,447740
2,1516.24,447154
2,1514.81,446447
2,1513.39,447346
2,1511.96,447209
2,1510.54,447736
2,1509.11,447441
2,1507.69,448141
2,1506.26,447593
2,1504.84,447019
2,1503.41,447498
2,1501.98,447550
2,1500.56,447416
2,1499.13,446127
2,1497.7,446373
2,1496.28,446719
2,1494.85,446737
2,1493.42,445874
2,1491.99,446962
2,1490.56,446823
2,1489.13,445969
2,1487.71,445519
2,1486.28,444843
2,1484.85,446021
2,1483.42,445536
2,1481.99,445119
2,1480.55,444621
2,1479.12,444663
2,1477.69,444611
2,1476.26,444255
2,1474.83,444717
2,1473.4,444873
2,1471.96,443719
2,1470.53,443373
2,1469.1,444364
2,1467.67,443587
2,1466.23,443585
2,1464.8,442846
2,1463.36,442982
2,1461.93,442083
2,1460.5,442426
2,1459.06,441866
2,1457.63,442393
2,1456.19,441675
2,1454.75,441691
2,1453.32,441860
2,1451.88,441017
2,1450.44,440664
2,1449.01,439905
2,1447.57,440372
2,1446.13,439692
2,1444.7,439250
2,1443.26,438836
2,1441.82,439842
2,1440.38,438906
2,1438.94,438767
2,1437.5,439540
2,1436.06,438559
2,1434.62,438049
2,1433.18,438274
2,1431.74,437569
2,1430.3,436841
2,1428.86,436709
2,1427.42,436975
2,1425.98,436990
2,1424.54,437195
2,1423.09,436835
2,1421.65,436181
2,1420.21,435800
2,1418.77,435328
2,1417.32,434680
2,1415.88,434880
2,1414.43,434504
2,1412.99,434667
2,1411.55,434595
2,1410.1,434022
2,1408.66,434348
2,1407.21,433529
2,1405.76,433662
2,1404.32,433071
2,1402.87,432439
2,1401.43,432343
2,1399.98,432461
2,1398.53,432641
2,1397.09,432170
2,1395.64,431768
2,1394.19,431483
2,1392.74,431645
2,1391.29,431196
2,1389.84,431078
2,1388.39,430743
2,1386.95,430231
2,1385.5,429534
2,1384.05,429625
2,1382.6,429445
2,1381.14,429487
2,1379.69,428957
2,1378.24,428578
2,1376.79,428802
2,1375.34,428098
2,1373.89,427930
2,1372.44,427025
2,1370.98,426815
2,1369.53,427464
2,1368.08,426857
2,1366.62,426441
2,1365.17,426098
2,1363.71,425940
2,1362.26,425682
2,1360.81,425212
2,1359.35,424971
2,1357.9,425056
2,1356.44,424870
2,1354.98,424984
2,1353.53,424256
2,1352.07,424010
2,1350.61,423833
2,1349.16,423105
2,1347.7,422662
2,1346.24,422865
2,1344.79,422234
2,1343.33,422128
2,1341.87,421625
2,1340.41,421470
2,1338.95,420987
2,1337.49,420692
2,1336.03,420263
2,1334.57,420452
2,1333.11,420464
2,1331.65,419781
2,1330.19,418909
2,1328.73,419269
2,1327.27,418773
2,1325.81,418487
2,1324.34,419004
2,1322.88,417918
2,1321.42,417652
2,1319.96,417131
2,1318.49,416713
2,1317.03,416671
2,1315.57,415872
2,1314.1,416579
2,1312.64,416390
2,1311.17,415336
2,1309.71,415144
2,1308.24,414861
2,1306.78,414940
2,1305.31,414341
2,1303.84,413935
2,1302.38,413723
2,1300.91,413055
2,1299.44,412740
2,1297.98,412035
2,1296.51,413063
2,1295.04,412472
2,1293.57,411410
2,1292.1,411488
2,1290.64,411319
2,1289.17,410497
2,1287.7,410228
2,1286.23,409868
2,1284.76,410027
2,1283.29,409991
2,1281.82,409176
2,1280.34,409460
2,1278.87,408585
2,1277.4,408659
2,1275.93,408008
2,1274.46,408031
2,1272.99,408147
2,1271.51,406944
2,1270.04,407344
2,1268.57,406555
2,1267.09,406829
2,1265.62,405599
2,1264.14,405194
2,1262.67,405814
2,1261.2,404792
2,1259.72,404609
2,1258.25,404124
2,1256.77,403704
2,1255.29,403933
2,1253.82,403538
2,1252.34,402784
2,1250.86,402316
2,1249.39,401597
2,1247.91,402028
2,1246.43,401450
2,1244.95,401489
2,1243.47,400796
2,1242,400910
2,1240.52,399861
2,1239.04,399571
2,1237.56,400018
2,1236.08,399424
2,1234.6,399389
2,1233.12,398136
2,1231.64,397203
2,1230.16,397837
2,1228.67,397205
2,1227.19,396887
2,1225.71,396198
2,1224.23,395312
2,1222.75,395741
2,1221.26,395621
2,1219.78,394406
2,1218.3,394375
2,1216.81,393955
2,1215.33,393662
2,1213.84,393523
2,1212.36,392777
2,1210.87,392387
2,1209.39,392886
2,1207.9,391833
2,1206.42,392141
2,1204.93,391581
2,1203.44,390906
2,1201.96,390285
2,1200.47,390091
2,1198.98,389939
2,1197.49,389774
2,1196.01,389244
2,1194.52,388951
2,1193.03,388613
2,1191.54,388208
2,1190.05,387888
2,1188.56,386388
2,1187.07,386155
2,1185.58,385556
2,1184.09,385505
2,1182.6,385544
2,1181.11,385348
2,1179.62,384568
2,1178.13,384566
2,1176.63,384551
2,1175.14,383837
2,1173.65,383172
2,1172.16,383817
2,1170.66,382951
2,1169.17,382226
2,1167.68,382244
2,1166.18,381573
2,1164.69,382090
2,1163.19,381019
2,1161.7,380255
2,1160.2,379696
2,1158.71,379827
2,1157.21,379822
2,1155.71,379213
2,1154.22,378717
2,1152.72,378403
2,1151.22,377508
2,1149.73,377507
2,1148.23,376903
2,1146.73,376529
2,1145.23,376340
2,1143.73,375780
2,1142.23,375641
2,1140.73,375892
2,1139.23,374946
2,1137.73,373793
2,1136.23,374310
2,1134.73,373817
2,1133.23,373434
2,1131.73,373096
2,1130.23,372823
2,1128.73,372304
2,1127.23,371645
2,1125.72,371905
2,1124.22,371094
2,1122.72,370889
2,1121.21,371143
2,1119.71,369914
2,1118.21,369860
2,1116.7,369191
2,1115.2,368808
2,1113.69,368736
2,1112.19,368149
2,1110.68,367450
2,1109.18,367220
2,1107.67,367087
2,1106.16,366145
2,1104.66,366512
2,1103.15,365971
2,1101.64,365186
2,1100.14,365248
2,1098.63,364473
2,1097.12,363867
2,1095.61,363799
2,1094.1,363970
2,1092.59,363248
2,1091.08,362996
2,1089.57,362414
2,1088.06,362237
2,1086.55,361714
2,1085.04,361550
2,1083.53,360939
2,1082.02,360438
2,1080.51,360689
2,1079,359631
2,1077.48,359903
2,1075.97,359269
2,1074.46,358884
2,1072.94,358546
2,1071.43,357278
2,1069.92,357052
2,1068.4,356933
2,1066.89,356797
2,1065.37,356444
2,1063.86,356036
2,1062.34,356278
2,1060.83,355420
2,1059.31,355135
2,1057.8,354292
2,1056.28,354036
2,1054.76,353150
2,1053.24,353698
2,1051.73,352772
2,1050.21,352298
2,1048.69,352650
2,1047.17,351757
2,1045.65,351529
2,1044.13,351373
2,1042.61,351069
2,1041.09,350119
2,1039.57,349393
2,1038.05,349604
2,1036.53,348856
2,1035.01,348256
2,1033.49,348118
2,1031.97,347370
2,1030.45,347464
2,1028.93,347162
2,1027.4,346511
2,1025.88,346392
2,1024.36,345898
2,1022.83,345374
2,1021.31,345107
2,1019.78,344798
2,1018.26,344889
2,1016.74,343879
2,1015.21,343361
2,1013.68,342810
2,1012.16,342721
2,1010.63,342370
2,1009.11,341858
2,1007.58,340938
2,1006.05,342003
2,1004.53,341279
2,1003,340677
2,1001.47,340367
2,999.942,339619
2,998.413,339493
2,996.884,339116
2,995.355,338355
2,993.825,337957
2,992.296,337663
2,990.765,337119
2,989.235,336601
2,987.704,336518
2,986.173,335741
2,984.642,335652
2,983.11,334960
2,981.578,335535
2,980.045,334445
2,978.513,333985
2,976.98,334395
2,975.446,332986
2,973.913,332556
2,972.379,332587
2,970.844,331959
2,969.31,331820
2,967.775,331232
2,966.24,330699
2,964.704,330183
2,963.168,330325
2,961.632,329212
2,960.095,329361
2,958.559,329131
2,957.021,328069
2,955.484,327509
2,953.946,327057
2,952.408,327244
2,950.87,326325
2,949.331,326432
2,947.792,325492
2,946.253,325199
2,944.713,324791
2,943.173,324723
2,941.632,323899
2,940.092,323195
2,938.551,323075
2,937.01,322150
2,935.468,322223
2,933.926,322410
2,932.384,321001
2,930.841,320998
2,929.298,320632
2,927.755,320190
2,926.211,319909
2,924.668,319607
2,923.123,319245
2,921.579,318728
2,920.034,318174
2,918.489,317826
2,916.944,317253
2,915.398,316954
2,913.852,316573
2,912.305,316495
2,910.758,315697
2,909.211,314279
2,907.664,314665
2,906.116,314082
2,904.568,314338
2,903.02,313088
2,901.471,313478
2,899.922,312948
2,898.373,312574
2,896.823,311911
2,895.273,311075
2,893.723,310424
2,892.172,310654
2,890.621,310170
2,889.07,310073
2,887.519,308996
2,885.967,309391
2,884.415,308886
2,882.862,308504
2,881.309,308082
2,879.756,307757
2,878.202,307203
2,876.649,305967
2,875.094,305763
2,873.54,305876
2,871.985,305466
2,870.43,304719
2,868.875,304694
2,867.319,304006
2,865.763,303937
2,864.206,303323
2,862.649,303059
2,861.092,302471
2,859.535,301891
2,857.977,301939
2,856.419,300814
2,854.861,300558
2,853.302,300529
2,851.743,299934
2,850.184,299766
2,848.624,299608
2,847.064,298307
2,845.504,298851
2,843.943,298195
2,842.382,297478
2,840.821,296929
2,839.259,296685
2,837.697,295792
2,836.135,295763
2,834.572,294645
2,833.009,294897
2,831.446,293882
2,829.882,293614
2,828.319,293519
2,826.754,293684
2,825.19,292948
2,823.625,292230
2,822.06,292305
2,820.494,291733
2,818.928,291272
2,817.362,290773
2,815.795,290495
2,814.229,289801
2,812.661,290025
2,811.094,288886
2,809.526,288931
2,807.958,288117
2,806.389,287396
2,804.821,287384
2,803.251,287115
2,801.682,287038
2,800.112,286068
2,798.542,286040
2,796.971,285379
2,795.401,284777
2,793.83,284538
2,792.258,284007
2,790.686,283951
2,789.114,283374
2,787.542,283170
2,785.969,282345
2,784.396,282041
2,782.822,282213
2,781.249,282047
2,779.675,280951
2,778.1,280321
2,776.525,280956
2,774.95,280020
2,773.375,279294
2,771.799,279221
2,770.223,278661
2,768.647,278659
2,767.07,278221
2,765.493,277649
2,763.915,277395
2,762.338,277069
2,760.76,276217
2,759.181,276366
2,757.603,275526
2,756.023,275440
2,754.444,274694
2,752.864,274388
2,751.284,273698
2,749.704,273598
2,748.123,273437
2,746.542,272893
2,744.961,272652
2,743.379,272073
2,741.797,271407
2,740.215,270978
2,738.632,270936
2,737.049,270221
2,735.466,270617
2,733.882,269158
2,732.298,268867
2,730.713,268389
2,729.129,268622
2,727.544,268034
2,725.958,268201
2,724.373,266934
2,722.787,266365
2,721.2,266256
2,719.614,266261
2,718.027,265754
2,716.439,265001
2,714.851,265017
2,713.263,264328
2,711.675,263685
2,710.086,263423
2,708.497,262887
2,706.908,262622
2,705.318,262310
2,703.728,261947
2,702.138,261800
2,700.547,261362
2,698.956,260384
2,697.365,260523
2,695.773,259758
2,694.181,259383
2,692.588,259189
2,690.996,258751
2,689.403,258168
2,687.809,257894
2,686.215,257666
2,684.621,256955
2,683.027,256856
2,681.432,256478
2,679.837,256157
2,678.242,255476
2,676.646,255052
2,675.05,254375
2,673.453,254332
2,671.857,253685
2,670.26,253531
2,668.662,253207
2,667.064,252593
2,665.466,251945
2,663.868,251418
2,662.269,251583
2,660.67,250939
2,659.07,250656
2,657.471,250110
2,655.87,249764
2,654.27,249683
2,652.669,249437
2,651.068,248725
2,649.466,248380
2,647.865,247848
2,646.262,247794
2,644.66,247321
2,643.057,246460
2,641.454,246525
2,639.85,245344
2,638.247,245546
2,636.642,245548
2,635.038,245269
2,633.433,244312
2,631.828,243924
2,630.222,243734
2,628.616,243280
2,627.01,242607
2,625.403,242242
2,623.796,241801
2,622.189,241800
2,620.582,241357
2,618.974,240434
2,617.365,240397
2,615.757,239993
2,614.148,239701
2,612.538,238875
2,610.929,238824
2,609.319,238203
2,607.708,238819
2,606.098,237966
2,604.487,237517
2,602.875,237264
2,601.264,236643
2,599.652,235891
2,598.039,235640
2,596.426,235970
2,594.813,235015
2,593.2,234502
2,591.586,233704
2,589.972,233901
2,588.358,234020
2,586.743,232894
2,585.128,232827
2,583.512,232590
2,581.897,231931
2,580.28,231517
2,578.664,231291
2,577.047,230799
2,575.43,230230
2,573.812,229782
2,572.194,229643
2,570.576,228988
2,568.958,228975
2,567.339,228280
2,565.72,228253
2,564.1,227666
2,562.48,227234
2,560.86,227236
2,559.239,227102
2,557.618,226605
2,555.997,225969
2,554.375,225626
2,552.753,224997
2,551.131,225015
2,549.508,224493
2,547.885,223945
2,546.262,223469
2,544.638,223062
2,543.014,222919
2,541.389,222268
2,539.765,222070
2,538.14,221917
2,536.514,221654
2,534.888,221188
2,533.262,220760
2,531.636,220205
2,530.009,220307
2,528.382,219421
2,526.754,219044
2,525.126,218811
2,523.498,218229
2,521.869,218480
2,520.24,217567
2,518.611,217307
2,516.982,217245
2,515.352,216785
2,513.721,216361
2,512.091,215695
2,510.46,215520
2,508.828,215151
2,507.197,214710
2,505.565,214335
2,503.932,213889
2,502.299,213289
2,500.666,213559
2,499.033,213168
2,497.399,212775
2,495.765,212163
2,494.13,212028
2,492.496,211637
2,490.86,211104
2,489.225,210729
2,487.589,210312
2,485.953,209723
2,484.316,209666
2,482.679,209352
2,481.042,209136
2,479.404,208841
2,477.766,208124
2,476.128,208027
2,474.489,207480
2,472.85,207322
2,471.211,206567
2,469.571,206429
2,467.931,206035
2,466.29,205631
2,464.65,205279
2,463.008,205012
2,461.367,204535
2,459.725,204459
2,458.083,203968
2,456.44,203512
2,454.797,203043
2,453.154,202842
2,451.511,202826
2,449.867,202331
2,448.222,201811
2,446.578,201410
2,444.933,201214
2,443.287,200612
2,441.642,200164
2,439.995,200326
2,438.349,199858
2,436.702,199307
2,435.055,199310
2,433.408,198850
2,431.76,198638
2,430.112,197986
2,428.463,197504
2,426.814,197183
2,425.165,197012
2,423.515,196563
2,421.865,196124
2,420.215,195947
2,418.564,195635
2,416.913,195493
2,415.262,195052
2,413.61,194919
2,411.958,194266
2,410.306,194096
2,408.653,194058
2,407,193710
2,405.346,193285
2,403.692,192714
2,402.038,192414
2,400.383,192382
2,398.729,191741
2,397.073,191483
2,395.418,190947
2,393.762,190966
2,392.105,190486
2,390.449,190024
2,388.791,189647
2,387.134,189836
2,385.476,188741
2,383.818,188522
2,382.16,188226
2,380.501,188087
2,378.842,187512
2,377.182,187506
2,375.522,187079
2,373.862,187035
2,372.201,186550
2,370.54,186250
2,368.879,185870
2,367.217,185342
2,365.555,185046
2,363.893,185149
2,362.23,184240
2,360.567,184315
2,358.903,184130
2,357.239,183915
2,355.575,183580
2,353.911,183082
2,352.246,182452
2,350.58,182488
2,348.915,182256
2,347.249,181528
2,345.582,181469
2,343.916,181106
2,342.249,180825
2,340.581,180353
2,338.913,179888
2,337.245,179603
2,335.577,179412
2,333.908,179024
2,332.238,178629
2,330.569,178661
2,328.899,178178
2,327.229,177887
2,325.558,177651
2,323.887,177218
2,322.215,177214
2,320.544,176453
2,318.871,176401
2,317.199,175715
2,315.526,175697
2,313.853,175188
2,312.179,174877
2,310.505,175080
2,308.831,174470
2,307.156,173979
2,305.481,173657
2,303.806,173434
2,302.13,173348
2,300.454,172757
2,298.778,172907
2,297.101,172259
2,295.424,172087
2,293.746,172113
2,292.068,171302
2,290.39,171623
2,288.711,170703
2,287.032,170582
2,285.353,170355
2,283.673,170171
2,281.993,169545
2,280.312,169142
2,278.632,169117
2,276.95,168715
2,275.269,168797
2,273.587,168295
2,271.905,167979
2,270.222,167654
2,268.539,167198
2,266.856,167063
2,265.172,166700
2,263.488,166192
2,261.803,166484
2,260.118,165834
2,258.433,165636
2,256.748,164907
2,255.062,165241
2,253.375,164774
2,251.689,164249
2,250.002,163900
2,248.314,163535
2,246.626,163480
2,244.938,163359
2,243.25,163075
2,241.561,162387
2,239.872,162642
2,238.182,162106
2,236.492,161895
2,234.802,161362
2,233.111,161394
2,231.42,161011
2,229.729,160838
2,228.037,160386
2,226.345,160255
2,224.652,160041
2,222.959,159666
2,221.266,159689
2,219.572,159184
2,217.878,158908
2,216.184,158619
2,214.489,158246
2,212.794,157981
2,211.098,157892
2,209.403,157689
2,207.706,157099
2,206.01,156758
2,204.313,156731
2,202.615,156238
2,200.918,155991
2,199.22,155726
2,197.521,155388
2,195.822,155124
2,194.123,155149
2,192.424,154818
2,190.724,154194
2,189.023,153572
2,187.323,153925
2,185.622,153453
2,183.92,153022
2,182.219,153101
2,180.516,153064
2,178.814,152834
2,177.111,152337
2,175.408,151989
2,173.704,151618
2,172,151377
2,170.296,151247
2,168.591,151004
2,166.886,150744
2,165.18,150325
2,163.474,150081
2,161.768,149949
2,160.062,149925
2,158.355,149610
2,156.647,148974
2,154.94,148801
2,153.231,148630
2,151.523,148340
2,149.814,148158
2,148.105,147660
2,146.395,147779
2,144.685,147189
2,142.975,147155
2,141.264,147143
2,139.553,146680
2,137.842,146317
2,136.13,146100
2,134.418,145543
2,132.705,145923
2,130.992,145363
2,129.279,144981
2,127.565,145132
2,125.851,144743
2,124.137,144667
2,122.422,143905
2,120.707,143825
2,118.991,143944
2,117.275,143440
2,115.559,142944
2,113.842,142879
2,112.125,142699
2,110.407,142383
2,108.69,142173
2,106.971,141750
2,105.253,141661
2,103.534,141356
2,101.815,141273
2,100.095,140964
2,98.3747,140557
2,96.6542,140426
2,94.9334,140247
2,93.2122,139755
2,91.4906,139911
2,89.7686,139464
2,88.0462,139063
2,86.3235,138726
2,84.6004,138447
2,82.8769,138092
2,81.153,137926
2,79.4288,137924
2,77.7041,137055
2,75.9791,136930
2,74.2538,136669
2,72.528,136385
2,70.8019,136192
2,69.0753,135761
2,67.3484,135674
2,65.6212,134933
2,63.8935,135023
2,62.1655,134773
2,60.4371,133924
2,58.7083,134082
2,56.9791,133738
2,55.2495,133678
2,53.5196,133061
2,51.7893,132899
2,50.0586,132622
2,48.3275,132035
2,46.5961,131770
2,44.8642,131484
2,43.132,131090
2,41.3994,130770
2,39.6665,130531
2,37.9331,130423
2,36.1994,129824
2,34.4652,129631
2,32.7307,129252
2,30.9958,128717
2,29.2606,128582
2,27.5249,128488
2,25.7889,127778
2,24.0525,127784
2,22.3157,127305
2,20.5785,127232
2,18.841,126836
2,17.103,126417
2,15.3647,125998
2,13.626,125981
2,11.8869,125626
2,10.1474,125215
2,8.40756,124883
2,6.66732,124690
2,4.92669,124164
2,3.18569,123566
2,1.44429,123392
2,-0.297481,122923
2,-2.03964,122488
2,-3.78218,122151
2,-5.52511,121840
2,-7.26843,121402
2,-9.01212,120794
2,-10.7562,120541
2,-12.5007,120062
2,-14.2455,119760
2,-15.9908,119574
2,-17.7364,118664
2,-19.4824,118563
2,-21.2288,118031
2,-22.9756,117594
2,-24.7227,116993
2,-26.4703,116799
2,-28.2182,116561
2,-29.9665,116009
2,-31.7152,115736
2,-33.4643,115234
2,-35.2138,114809
2,-36.9637,114310
2,-38.7139,113883
2,-40.4646,113321
2,-42.2156,113113
2,-43.967,112705
2,-45.7188,112216
2,-47.471,111776
2,-49.2236,111380
2,-50.9765,110958
2,-52.7299,110570
2,-54.4836,110022
2,-56.2378,109806
2,-57.9923,109208
2,-59.7472,108659
2,-61.5025,108461
2,-63.2582,108048
2,-65.0142,107308
2,-66.7707,107284
