1,1981.76,62639
1,1980.43,62607
1,1979.09,62611
1,1977.76,62588
1,1976.43,62613
1,1975.09,62665
1,1973.76,62633
1,1972.43,62653
1,1971.09,62656
1,1969.76,62648
1,1968.42,62591
1,1967.09,62651
1,1965.75,62660
1,1964.42,62667
1,1963.08,62669
1,1961.74,62627
1,1960.41,62620
1,1959.07,62715
1,1957.73,62683
1,1956.4,62659
1,1955.06,62630
1,1953.72,62685
1,1952.38,62663
1,1951.04,62658
1,1949.71,62653
1,1948.37,62701
1,1947.03,62642
1,1945.69,62715
1,1944.35,62624
1,1943.01,62697
1,1941.67,62667
1,1940.33,62673
1,1938.99,62660
1,1937.65,62639
1,1936.31,62632
1,1934.97,62683
1,1933.62,62685
1,1932.28,62660
1,1930.94,62618
1,1929.6,62606
1,1928.26,62642
1,1926.91,62660
1,1925.57,62725
1,1924.23,62824
1,1922.88,62669
1,1921.54,62696
1,1920.19,62709
1,1918.85,62666
1,1917.51,62726
1,1916.16,62680
1,1914.82,62660
1,1913.47,62640
1,1912.12,62696
1,1910.78,62730
1,1909.43,62668
1,1908.09,62719
1,1906.74,62664
1,1905.39,62781
1,1904.04,62691
1,1902.7,62683
1,1901.35,62717
1,1900,62693
1,1898.65,62762
1,1897.3,62654
1,1895.95,62692
1,1894.61,62679
1,1893.26,62699
1,1891.91,62673
1,1890.56,62688
1,1889.21,62692
1,1887.86,62690
1,1886.51,62687
1,1885.15,62776
1,1883.8,62989
1,1882.45,62738
1,1881.1,62703
1,1879.75,62721
1,1878.4,62626
1,1877.04,62696
1,1875.69,62688
1,1874.34,62721
1,1872.98,62726
1,1871.63,62689
1,1870.28,62657
1,1868.92,62630
1,1867.57,62674
1,1866.21,62785
1,1864.86,62706
1,1863.5,62724
1,1862.15,62727
1,1860.79,62705
1,1859.44,62707
1,1858.08,62677
1,1856.72,62729
1,1855.37,62732
1,1854.01,62726
1,1852.65,62783
1,1851.29,62707
1,1849.94,62739
1,1848.58,62703
1,1847.22,62723
1,1845.86,62754
1,1844.5,62676
1,1843.14,62704
1,1841.78,62645
1,1840.42,62647
1,1839.06,62633
1,1837.7,62621
1,1836.34,62640
1,1834.98,62624
1,1833.62,62631
1,1832.26,62592
1,1830.9,62609
1,1829.54,62604
1,1828.18,62534
1,1826.81,62505
1,1825.45,62594
1,1824.09,63087
1,1822.73,63430
1,1821.36,62930
1,1820,62578
1,1818.63,62439
1,1817.27,62407
1,1815.91,62388
1,1814.54,62394
1,1813.18,62425
1,1811.81,62353
1,1810.45,62332
1,1809.08,62341
1,1807.71,62336
1,1806.35,62377
1,1804.98,62244
1,1803.61,62238
1,1802.25,62477
1,1800.88,62276
1,1799.51,62238
1,1798.14,62261
1,1796.78,62252
1,1795.41,62234
1,1794.04,62222
1,1792.67,62251
1,1791.3,62234
1,1789.93,62277
1,1788.56,62179
1,1787.19,62273
1,1785.82,62187
1,1784.45,62235
1,1783.08,62208
1,1781.71,62255
1,1780.34,62230
1,1778.96,62235
1,1777.59,62205
1,1776.22,62182
1,1774.85,62263
1,1773.48,62237
1,1772.1,62205
1,1770.73,62205
1,1769.36,62196
1,1767.98,62273
1,1766.61,62183
1,1765.23,62216
1,1763.86,62238
1,1762.48,62218
1,1761.11,62225
1,1759.73,62315
1,1758.36,62286
1,1756.98,62263
1,1755.61,62262
1,1754.23,62241
1,1752.85,62252
1,1751.47,62286
1,1750.1,62229
1,1748.72,62242
1,1747.34,62222
1,1745.96,62226
1,1744.59,62250
1,1743.21,62199
1,1741.83,62225
1,1740.45,62263
1,1739.07,62221
1,1737.69,62209
1,1736.31,62234
1,1734.93,62209
1,1733.55,62212
1,1732.17,62219
1,1730.79,62248
1,1729.41,62252
1,1728.02,62181
1,1726.64,62228
1,1725.26,62217
1,1723.88,62261
1,1722.49,62190
1,1721.11,62237
1,1719.73,62224
1,1718.34,62220
1,1716.96,62193
1,1715.58,62225
1,1714.19,62242
1,1712.81,62272
1,1711.42,62214
1,1710.04,62295
1,1708.65,62298
1,1707.27,62198
1,1705.88,62252
1,1704.49,62252
1,1703.11,62268
1,1701.72,62324
1,1700.33,62269
1,1698.95,62210
1,1697.56,62281
1,1696.17,62303
1,1694.78,62143
1,1693.39,62221
1,1692.01,62263
1,1690.62,62267
1,1689.23,62245
1,1687.84,62261
1,1686.45,62258
1,1685.06,62274
1,1683.67,62290
1,1682.28,62314
1,1680.89,62283
1,1679.49,62393
1,1678.1,62493
1,1676.71,62384
1,1675.32,62372
1,1673.93,62424
1,1672.53,62390
1,1671.14,62477
1,1669.75,62438
1,1668.36,62454
1,1666.96,62502
1,1665.57,62433
1,1664.17,62566
1,1662.78,62465
1,1661.38,62548
1,1659.99,62593
1,1658.59,62592
1,1657.2,62598
1,1655.8,62593
1,1654.41,62721
1,1653.01,62615
1,1651.61,62672
1,1650.22,62595
1,1648.82,62644
1,1647.42,62662
1,1646.02,62654
1,1644.63,62646
1,1643.23,62679
1,1641.83,62752
1,1640.43,62741
1,1639.03,62684
1,1637.63,62663
1,1636.23,62682
1,1634.83,62745
1,1633.43,62716
1,1632.03,62741
1,1630.63,62748
1,1629.23,62746
1,1627.83,62732
1,1626.43,62750
1,1625.02,62717
1,1623.62,62713
1,1622.22,62755
1,1620.82,62756
1,1619.41,62708
1,1618.01,62767
1,1616.61,62739
1,1615.2,62783
1,1613.8,62788
1,1612.39,62785
1,1610.99,62779
1,1609.58,62729
1,1608.18,62761
1,1606.77,62742
1,1605.37,62755
1,1603.96,62834
1,1602.56,62780
1,1601.15,62740
1,1599.74,62773
1,1598.33,62767
1,1596.93,62825
1,1595.52,62890
1,1594.11,62901
1,1592.7,62811
1,1591.29,62791
1,1589.89,62799
1,1588.48,62756
1,1587.07,62812
1,1585.66,62885
1,1584.25,62771
1,1582.84,62861
1,1581.43,62811
1,1580.02,62772
1,1578.6,62800
1,1577.19,62747
1,1575.78,62866
1,1574.37,62906
1,1572.96,62801
1,1571.54,62829
1,1570.13,62793
1,1568.72,62845
1,1567.3,62822
1,1565.89,62792
1,1564.48,62927
1,1563.06,62828
1,1561.65,62761
1,1560.23,62837
1,1558.82,62789
1,1557.4,62834
1,1555.99,62770
1,1554.57,62851
1,1553.16,62846
1,1551.74,62974
1,1550.32,62861
1,1548.91,62825
1,1547.49,62813
1,1546.07,62852
1,1544.65,62824
1,1543.23,62786
1,1541.82,62851
1,1540.4,62781
1,1538.98,62789
1,1537.56,62837
1,1536.14,62807
1,1534.72,62860
1,1533.3,62861
1,1531.88,62782
1,1530.46,62850
1,1529.04,62883
1,1527.62,62865
1,1526.19,62765
1,1524.77,62939
1,1523.35,62918
1,1521.93,62816
1,1520.51,62762
1,1519.08,62771
1,1517.66,62873
1,1516.24,62787
1,1514.81,62830
1,1513.39,63004
1,1511.96,62841
1,1510.54,62874
1,1509.11,62822
1,1507.69,62839
1,1506.26,62840
1,1504.84,62816
1,1503.41,62884
1,1501.98,62826
1,1500.56,62804
1,1499.13,62825
1,1497.7,62846
1,1496.28,62888
1,1494.85,62835
1,1493.42,62887
1,1491.99,62824
1,1490.56,62854
1,1489.13,62883
1,1487.71,62819
1,1486.28,62846
1,1484.85,63107
1,1483.42,62892
1,1481.99,62831
1,1480.55,62868
1,1479.12,62872
1,1477.69,62815
1,1476.26,62877
1,1474.83,62821
1,1473.4,62847
1,1471.96,62834
1,1470.53,62863
1,1469.1,62892
1,1467.67,62826
1,1466.23,62899
1,1464.8,62825
1,1463.36,62876
1,1461.93,62896
1,1460.5,62786
1,1459.06,62774
1,1457.63,62907
1,1456.19,62862
1,1454.75,62831
1,1453.32,62907
1,1451.88,62804
1,1450.44,62888
1,1449.01,62870
1,1447.57,62861
1,1446.13,62912
1,1444.7,62795
1,1443.26,62854
1,1441.82,62853
1,1440.38,62815
1,1438.94,62810
1,1437.5,62872
1,1436.06,62846
1,1434.62,62876
1,1433.18,62822
1,1431.74,62834
1,1430.3,62828
1,1428.86,62882
1,1427.42,62940
1,1425.98,62881
1,1424.54,62860
1,1423.09,62877
1,1421.65,62994
1,1420.21,62929
1,1418.77,62872
1,1417.32,62971
1,1415.88,62761
1,1414.43,62850
1,1412.99,62851
1,1411.55,62878
1,1410.1,62827
1,1408.66,62848
1,1407.21,62809
1,1405.76,62806
1,1404.32,62845
1,1402.87,62848
1,1401.43,62856
1,1399.98,62818
1,1398.53,62943
1,1397.09,62841
1,1395.64,62832
1,1394.19,62906
1,1392.74,62837
1,1391.29,62807
1,1389.84,62847
1,1388.39,62833
1,1386.95,62898
1,1385.5,62828
1,1384.05,62869
1,1382.6,62828
1,1381.14,62854
1,1379.69,62882
1,1378.24,62855
1,1376.79,62842
1,1375.34,62842
1,1373.89,62829
1,1372.44,62823
1,1370.98,62874
1,1369.53,62871
1,1368.08,62784
1,1366.62,62833
1,1365.17,62801
1,1363.71,62816
1,1362.26,62880
1,1360.81,62840
1,1359.35,62814
1,1357.9,62785
1,1356.44,62925
1,1354.98,62874
1,1353.53,62844
1,1352.07,62868
1,1350.61,62846
1,1349.16,62931
1,1347.7,62850
1,1346.24,62826
1,1344.79,62815
1,1343.33,62890
1,1341.87,62842
1,1340.41,62964
1,1338.95,62864
1,1337.49,62833
1,1336.03,62802
1,1334.57,62865
1,1333.11,62841
1,1331.65,62844
1,1330.19,62822
1,1328.73,62873
1,1327.27,62883
1,1325.81,62961
1,1324.34,62830
1,1322.88,62806
1,1321.42,62847
1,1319.96,62828
1,1318.49,62807
1,1317.03,62882
1,1315.57,62850
1,1314.1,62875
1,1312.64,62846
1,1311.17,62930
1,1309.71,62887
1,1308.24,62877
1,1306.78,62856
1,1305.31,62825
1,1303.84,62852
1,1302.38,62887
1,1300.91,62865
1,1299.44,62837
1,1297.98,62809
1,1296.51,62806
1,1295.04,62882
1,1293.57,62796
1,1292.1,62931
1,1290.64,62940
1,1289.17,62948
1,1287.7,62859
1,1286.23,62901
1,1284.76,62865
1,1283.29,62852
1,1281.82,62827
1,1280.34,62913
1,1278.87,62924
1,1277.4,62830
1,1275.93,62829
1,1274.46,62866
1,1272.99,62854
1,1271.51,63041
1,1270.04,62828
1,1268.57,62857
1,1267.09,62799
1,1265.62,62860
1,1264.14,62876
1,1262.67,62894
1,1261.2,62834
1,1259.72,62832
1,1258.25,62923
1,1256.77,62846
1,1255.29,62818
1,1253.82,62862
1,1252.34,62847
1,1250.86,63006
1,1249.39,62873
1,1247.91,62805
1,1246.43,62825
1,1244.95,62829
1,1243.47,62806
1,1242,62848
1,1240.52,62853
1,1239.04,62809
1,1237.56,62820
1,1236.08,62893
1,1234.6,62831
1,1233.12,62882
1,1231.64,62885
1,1230.16,62870
1,1228.67,62855
1,1227.19,62887
1,1225.71,62841
1,1224.23,62846
1,1222.75,62870
1,1221.26,62866
1,1219.78,62847
1,1218.3,62852
1,1216.81,62819
1,1215.33,62929
1,1213.84,62787
1,1212.36,62917
1,1210.87,62835
1,1209.39,62829
1,1207.9,62903
1,1206.42,62882
1,1204.93,62871
1,1203.44,62814
1,1201.96,62902
1,1200.47,62884
1,1198.98,62870
1,1197.49,62940
1,1196.01,62871
1,1194.52,62866
1,1193.03,62845
1,1191.54,62872
1,1190.05,62809
1,1188.56,62888
1,1187.07,62832
1,1185.58,62804
1,1184.09,62915
1,1182.6,62826
1,1181.11,62812
1,1179.62,62875
1,1178.13,62874
1,1176.63,62839
1,1175.14,62814
1,1173.65,62829
1,1172.16,62940
1,1170.66,62878
1,1169.17,62884
1,1167.68,62853
1,1166.18,62845
1,1164.69,62841
1,1163.19,62829
1,1161.7,62840
1,1160.2,62823
1,1158.71,62837
1,1157.21,62834
1,1155.71,62898
1,1154.22,62894
1,1152.72,62900
1,1151.22,62842
1,1149.73,62807
1,1148.23,62846
1,1146.73,62877
1,1145.23,62815
1,1143.73,62881
1,1142.23,62841
1,1140.73,62844
1,1139.23,62839
1,1137.73,62885
1,1136.23,62865
1,1134.73,62875
1,1133.23,62853
1,1131.73,62884
1,1130.23,62802
1,1128.73,62821
1,1127.23,62805
1,1125.72,62847
1,1124.22,62864
1,1122.72,62838
1,1121.21,62840
1,1119.71,62868
1,1118.21,62895
1,1116.7,62856
1,1115.2,62893
1,1113.69,62846
1,1112.19,62892
1,1110.68,62868
1,1109.18,62836
1,1107.67,62896
1,1106.16,62876
1,1104.66,62882
1,1103.15,62817
1,1101.64,62863
1,1100.14,62842
1,1098.63,62904
1,1097.12,62870
1,1095.61,62891
1,1094.1,62837
1,1092.59,62841
1,1091.08,62907
1,1089.57,62900
1,1088.06,62850
1,1086.55,62885
1,1085.04,62865
1,1083.53,62836
1,1082.02,62843
1,1080.51,62852
1,1079,62848
1,1077.48,62835
1,1075.97,62842
1,1074.46,62829
1,1072.94,62877
1,1071.43,62854
1,1069.92,62924
1,1068.4,62851
1,1066.89,62913
1,1065.37,62821
1,1063.86,62830
1,1062.34,62867
1,1060.83,62841
1,1059.31,62825
1,1057.8,62864
1,1056.28,62819
1,1054.76,62879
1,1053.24,62874
1,1051.73,62832
1,1050.21,62849
1,1048.69,62849
1,1047.17,62881
1,1045.65,62875
1,1044.13,62806
1,1042.61,62949
1,1041.09,62886
1,1039.57,62832
1,1038.05,62877
1,1036.53,62859
1,1035.01,62831
1,1033.49,62819
1,1031.97,62852
1,1030.45,62805
1,1028.93,62961
1,1027.4,62894
1,1025.88,62833
1,1024.36,62905
1,1022.83,62812
1,1021.31,62840
1,1019.78,62800
1,1018.26,62862
1,1016.74,62846
1,1015.21,62917
1,1013.68,62842
1,1012.16,64266
1,1010.63,62841
1,1009.11,62870
1,1007.58,62802
1,1006.05,62890
1,1004.53,62840
1,1003,62807
1,1001.47,62869
1,999.942,62899
1,998.413,62866
1,996.884,62870
1,995.355,62867
1,993.825,62832
1,992.296,62805
1,990.765,62871
1,989.235,62860
1,987.704,62883
1,986.173,62905
1,984.642,62924
1,983.11,62804
1,981.578,62816
1,980.045,62832
1,978.513,62834
1,976.98,62915
1,975.446,62818
1,973.913,62883
1,972.379,62894
1,970.844,62886
1,969.31,62843
1,967.775,62797
1,966.24,62871
1,964.704,62802
1,963.168,62885
1,961.632,62857
1,960.095,62849
1,958.559,62780
1,957.021,62878
1,955.484,62818
1,953.946,62843
1,952.408,62855
1,950.87,62850
1,949.331,62873
1,947.792,62873
1,946.253,62850
1,944.713,62875
1,943.173,62829
1,941.632,62846
1,940.092,62825
1,938.551,62866
1,937.01,62844
1,935.468,62832
1,933.926,62872
1,932.384,62846
1,930.841,62793
1,929.298,62845
1,927.755,62826
1,926.211,62859
1,924.668,62856
1,923.123,62824
1,921.579,62822
1,920.034,62855
1,918.489,62875
1,916.944,62795
1,915.398,62859
1,913.852,62888
1,912.305,62935
1,910.758,62847
1,909.211,62847
1,907.664,62852
1,906.116,62891
1,904.568,62868
1,903.02,62852
1,901.471,62858
1,899.922,62850
1,898.373,62849
1,896.823,62874
1,895.273,62875
1,893.723,62848
1,892.172,62822
1,890.621,62832
1,889.07,62856
1,887.519,62823
1,885.967,62824
1,884.415,62867
1,882.862,62859
1,881.309,62812
1,879.756,62798
1,878.202,62791
1,876.649,62871
1,875.094,62777
1,873.54,62889
1,871.985,62867
1,870.43,62867
1,868.875,62845
1,867.319,62860
1,865.763,62837
1,864.206,62828
1,862.649,62811
1,861.092,62703
1,859.535,62821
1,857.977,62805
1,856.419,62864
1,854.861,62834
1,853.302,62901
1,851.743,62964
1,850.184,62865
1,848.624,62843
1,847.064,62746
1,845.504,62846
1,843.943,62804
1,842.382,62860
1,840.821,62847
1,839.259,62856
1,837.697,62819
1,836.135,62815
1,834.572,62886
1,833.009,62887
1,831.446,62836
1,829.882,62795
1,828.319,62848
1,826.754,62867
1,825.19,62901
1,823.625,62903
1,822.06,62890
1,820.494,62803
1,818.928,62788
1,817.362,62900
1,815.795,62852
1,814.229,62848
1,812.661,62771
1,811.094,62860
1,809.526,62832
1,807.958,62838
1,806.389,62839
1,804.821,62859
1,803.251,62825
1,801.682,62815
1,800.112,62791
1,798.542,62815
1,796.971,62877
1,795.401,62932
1,793.83,62882
1,792.258,62866
1,790.686,62792
1,789.114,62868
1,787.542,62855
1,785.969,62829
1,784.396,62864
1,782.822,62823
1,781.249,62820
1,779.675,62869
1,778.1,62837
1,776.525,62769
1,774.95,62871
1,773.375,62838
1,771.799,62921
1,770.223,62763
1,768.647,62837
1,767.07,62865
1,765.493,62802
1,763.915,62863
1,762.338,62923
1,760.76,62873
1,759.181,62808
1,757.603,62873
1,756.023,62798
1,754.444,62828
1,752.864,62843
1,751.284,62826
1,749.704,62818
1,748.123,62885
1,746.542,62815
1,744.961,62934
1,743.379,62786
1,741.797,62780
1,740.215,62848
1,738.632,62832
1,737.049,62827
1,735.466,62820
1,733.882,62832
1,732.298,62825
1,730.713,62800
1,729.129,62837
1,727.544,62880
1,725.958,62868
1,724.373,62858
1,722.787,62830
1,721.2,62750
1,719.614,62862
1,718.027,62962
1,716.439,62800
1,714.851,62879
1,713.263,62793
1,711.675,62796
1,710.086,62817
1,708.497,62846
1,706.908,62828
1,705.318,62830
1,703.728,62839
1,702.138,62827
1,700.547,62788
1,698.956,62827
1,697.365,62822
1,695.773,62820
1,694.181,62843
1,692.588,62848
1,690.996,62817
1,689.403,62811
1,687.809,62872
1,686.215,62780
1,684.621,62753
1,683.027,62842
1,681.432,62867
1,679.837,62838
1,678.242,62793
1,676.646,62803
1,675.05,62820
1,673.453,62813
1,671.857,62842
1,670.26,62874
1,668.662,62799
1,667.064,62828
1,665.466,62869
1,663.868,62784
1,662.269,62788
1,660.67,62851
1,659.07,62794
1,657.471,62843
1,655.87,62794
1,654.27,62751
1,652.669,62858
1,651.068,62891
1,649.466,62866
1,647.865,62757
1,646.262,62829
1,644.66,62839
1,643.057,62758
1,641.454,62834
1,639.85,62879
1,638.247,62838
1,636.642,62797
1,635.038,62782
1,633.433,62845
1,631.828,62826
1,630.222,62779
1,628.616,62813
1,627.01,62823
1,625.403,62805
1,623.796,62813
1,622.189,62834
1,620.582,62852
1,618.974,62805
1,617.365,62850
1,615.757,62746
1,614.148,62772
1,612.538,62789
1,610.929,62795
1,609.319,62800
1,607.708,62783
1,606.098,62812
1,604.487,62819
1,602.875,62802
1,601.264,62878
1,599.652,62885
1,598.039,62772
1,596.426,62730
1,594.813,62800
1,593.2,62764
1,591.586,62808
1,589.972,62758
1,588.358,62794
1,586.743,62834
1,585.128,62804
1,583.512,62813
1,581.897,62930
1,580.28,62813
1,578.664,62818
1,577.047,62806
1,575.43,62824
1,573.812,63133
1,572.194,62802
1,570.576,62830
1,568.958,62789
1,567.339,62833
1,565.72,62772
1,564.1,62784
1,562.48,62795
1,560.86,62774
1,559.239,62833
1,557.618,62807
1,555.997,62760
1,554.375,62831
1,552.753,62806
1,551.131,62781
1,549.508,62834
1,547.885,62864
1,546.262,62873
1,544.638,62848
1,543.014,62796
1,541.389,62798
1,539.765,62842
1,538.14,62865
1,536.514,62793
1,534.888,62756
1,533.262,62749
1,531.636,62807
1,530.009,62832
1,528.382,62765
1,526.754,62790
1,525.126,62792
1,523.498,62823
1,521.869,62840
1,520.24,62830
1,518.611,62813
1,516.982,62750
1,515.352,62819
1,513.721,62788
1,512.091,62758
1,510.46,62825
1,508.828,62754
1,507.197,62841
1,505.565,62816
1,503.932,62777
1,502.299,62776
1,500.666,62801
1,499.033,62821
1,497.399,62850
1,495.765,62827
1,494.13,62800
1,492.496,62767
1,490.86,62808
1,489.225,62801
1,487.589,62824
1,485.953,62774
1,484.316,62826
1,482.679,62750
1,481.042,62933
1,479.404,62741
1,477.766,62791
1,476.128,62806
1,474.489,62802
1,472.85,62757
1,471.211,62863
1,469.571,62700
1,467.931,62820
1,466.29,62820
1,464.65,62791
1,463.008,62799
1,461.367,62815
1,459.725,62772
1,458.083,62800
1,456.44,62798
1,454.797,62829
1,453.154,62897
1,451.511,62812
1,449.867,62826
1,448.222,62786
1,446.578,62852
1,444.933,62737
1,443.287,62810
1,441.642,62827
1,439.995,62777
1,438.349,62806
1,436.702,62769
1,435.055,62743
1,433.408,62786
1,431.76,62808
1,430.112,62807
1,428.463,62805
1,426.814,62764
1,425.165,62745
1,423.515,62917
1,421.865,62789
1,420.215,62805
1,418.564,62818
1,416.913,62761
1,415.262,62836
1,413.61,62747
1,411.958,62812
1,410.306,62740
1,408.653,62818
1,407,62806
1,405.346,62799
1,403.692,62762
1,402.038,62812
1,400.383,62790
1,398.729,62760
1,397.073,62820
1,395.418,62766
1,393.762,62737
1,392.105,62785
1,390.449,62767
1,388.791,62754
1,387.134,62802
1,385.476,62804
1,383.818,62762
1,382.16,62715
1,380.501,62765
1,378.842,62775
1,377.182,62793
1,375.522,62738
1,373.862,62834
1,372.201,62750
1,370.54,62859
1,368.879,62784
1,367.217,62732
1,365.555,62787
1,363.893,62744
1,362.23,62773
1,360.567,62707
1,358.903,62798
1,357.239,62813
1,355.575,62717
1,353.911,62843
1,352.246,62885
1,350.58,62779
1,348.915,62737
1,347.249,62749
1,345.582,62872
1,343.916,62786
1,342.249,62799
1,340.581,62776
1,338.913,62838
1,337.245,62801
1,335.577,62753
1,333.908,62783
1,332.238,62795
1,330.569,62732
1,328.899,62739
1,327.229,62765
1,325.558,62756
1,323.887,62716
1,322.215,62720
1,320.544,62772
1,318.871,62828
1,317.199,62745
1,315.526,62735
1,313.853,62767
1,312.179,62679
1,310.505,62787
1,308.831,62765
1,307.156,62729
1,305.481,62784
1,303.806,62855
1,302.13,62798
1,300.454,62762
1,298.778,62684
1,297.101,62788
1,295.424,62791
1,293.746,62812
1,292.068,62727
1,290.39,62751
1,288.711,62717
1,287.032,62799
1,285.353,62778
1,283.673,62730
1,281.993,62750
1,280.312,62759
1,278.632,62819
1,276.95,62743
1,275.269,62726
1,273.587,62819
1,271.905,62751
1,270.222,62784
1,268.539,62769
1,266.856,63181
1,265.172,62714
1,263.488,62741
1,261.803,62780
1,260.118,62763
1,258.433,62768
1,256.748,62746
1,255.062,62757
1,253.375,62785
1,251.689,62812
1,250.002,62781
1,248.314,62730
1,246.626,62753
1,244.938,62838
1,243.25,62733
1,241.561,62780
1,239.872,62726
1,238.182,62748
1,236.492,62791
1,234.802,62748
1,233.111,62776
1,231.42,62730
1,229.729,62717
1,228.037,62771
1,226.345,62732
1,224.652,62761
1,222.959,62763
1,221.266,62773
1,219.572,62735
1,217.878,62737
1,216.184,62744
1,214.489,62782
1,212.794,62718
1,211.098,62742
1,209.403,62705
1,207.706,62732
1,206.01,62799
1,204.313,62859
1,202.615,62703
1,200.918,62715
1,199.22,62716
1,197.521,62788
1,195.822,62790
1,194.123,62733
1,192.424,62727
1,190.724,62728
1,189.023,62755
1,187.323,62738
1,185.622,62805
1,183.92,62670
1,182.219,62688
1,180.516,62725
1,178.814,62714
1,177.111,62683
1,175.408,62712
1,173.704,62740
1,172,62770
1,170.296,62693
1,168.591,62734
1,166.886,62745
1,165.18,62689
1,163.474,62729
1,161.768,62728
1,160.062,62728
1,158.355,62714
1,156.647,62720
1,154.94,62790
1,153.231,62730
1,151.523,62683
1,149.814,62693
1,148.105,62746
1,146.395,62701
1,144.685,62724
1,142.975,62772
1,141.264,62733
1,139.553,62704
1,137.842,62773
1,136.13,62800
1,134.418,62728
1,132.705,62658
1,130.992,62717
1,129.279,62713
1,127.565,62730
1,125.851,62705
1,124.137,62734
1,122.422,62710
1,120.707,62793
1,118.991,62744
1,117.275,62676
1,115.559,62694
1,113.842,62755
1,112.125,62709
1,110.407,62657
1,108.69,62710
1,106.971,62730
1,105.253,62703
1,103.534,62780
1,101.815,62671
1,100.095,62699
1,98.3747,62719
1,96.6542,62635
1,94.9334,62757
1,93.2122,62678
1,91.4906,62727
1,89.7686,62707
1,88.0462,62775
1,86.3235,62648
1,84.6004,62726
1,82.8769,62731
1,81.153,62698
1,79.4288,62723
1,77.7041,62794
1,75.9791,62730
1,74.2538,62774
1,72.528,62847
1,70.8019,62679
1,69.0753,62767
1,67.3484,62668
1,65.6212,62675
1,63.8935,62670
1,62.1655,62751
1,60.4371,62657
1,58.7083,62750
1,56.9791,62689
1,55.2495,62660
1,53.5196,62646
1,51.7893,62658
1,50.0586,62659
1,48.3275,62670
1,46.5961,62697
1,44.8642,62704
1,43.132,62730
1,41.3994,62679
1,39.6665,62673
1,37.9331,62743
1,36.1994,62720
1,34.4652,62698
1,32.7307,62696
1,30.9958,62709
1,29.2606,62669
1,27.5249,62677
1,25.7889,62661
1,24.0525,62689
1,22.3157,62687
1,20.5785,62730
1,18.841,62674
1,17.103,62639
1,15.3647,62795
1,13.626,62675
1,11.8869,62707
1,10.1474,62707
1,8.40756,62647
1,6.66732,62672
1,4.92669,62708
1,3.18569,62776
1,1.44429,62629
1,-0.297481,62606
1,-2.03964,62666
1,-3.78218,62647
1,-5.52511,62623
1,-7.26843,62603
1,-9.01212,62633
1,-10.7562,62661
1,-12.5007,62649
1,-14.2455,62620
1,-15.9908,62689
1,-17.7364,62667
1,-19.4824,62677
1,-21.2288,62592
1,-22.9756,62679
1,-24.7227,62685
1,-26.4703,62623
1,-28.2182,62654
1,-29.9665,62676
1,-31.7152,62685
1,-33.4643,62644
1,-35.2138,62654
1,-36.9637,62584
1,-38.7139,62649
1,-40.4646,62662
1,-42.2156,62657
1,-43.967,62622
1,-45.7188,62659
1,-47.471,62644
1,-49.2236,62600
1,-50.9765,62564
1,-52.7299,62620
1,-54.4836,62631
1,-56.2378,62623
1,-57.9923,62658
1,-59.7472,62549
1,-61.5025,62534
1,-63.2582,62546
1,-65.0142,62545
1,-66.7707,62878
