1,1981.76,61530
1,1980.43,61527
1,1979.09,61525
1,1977.76,61520
1,1976.43,61535
1,1975.09,61518
1,1973.76,61520
1,1972.43,61534
1,1971.09,61525
1,1969.76,61525
1,1968.42,61534
1,1967.09,61534
1,1965.75,61518
1,1964.42,61533
1,1963.08,61525
1,1961.74,61521
1,1960.41,61540
1,1959.07,61534
1,1957.73,61534
1,1956.4,61530
1,1955.06,61522
1,1953.72,61547
1,1952.38,61512
1,1951.04,61528
1,1949.71,61532
1,1948.37,61525
1,1947.03,61524
1,1945.69,61532
1,1944.35,61538
1,1943.01,61518
1,1941.67,61537
1,1940.33,61529
1,1938.99,61527
1,1937.65,61527
1,1936.31,61531
1,1934.97,61546
1,1933.62,61543
1,1932.28,61513
1,1930.94,61501
1,1929.6,61521
1,1928.26,61519
1,1926.91,61537
1,1925.57,61536
1,1924.23,61543
1,1922.88,61542
1,1921.54,61548
1,1920.19,61528
1,1918.85,61524
1,1917.51,61515
1,1916.16,61551
1,1914.82,61515
1,1913.47,61509
1,1912.12,61534
1,1910.78,61527
1,1909.43,61521
1,1908.09,61528
1,1906.74,61527
1,1905.39,61550
1,1904.04,61516
1,1902.7,61509
1,1901.35,61538
1,1900,61532
1,1898.65,61531
1,1897.3,61525
1,1895.95,61543
1,1894.61,61510
1,1893.26,61548
1,1891.91,61535
1,1890.56,61546
1,1889.21,61542
1,1887.86,61535
1,1886.51,61537
1,1885.15,61523
1,1883.8,61553
1,1882.45,61525
1,1881.1,61528
1,1879.75,61545
1,1878.4,61510
1,1877.04,61544
1,1875.69,61528
1,1874.34,61507
1,1872.98,61526
1,1871.63,61538
1,1870.28,61538
1,1868.92,61526
1,1867.57,61506
1,1866.21,61522
1,1864.86,61527
1,1863.5,61513
1,1862.15,61524
1,1860.79,61529
1,1859.44,61537
1,1858.08,61516
1,1856.72,61521
1,1855.37,61534
1,1854.01,61521
1,1852.65,61530
1,1851.29,61524
1,1849.94,61525
1,1848.58,61522
1,1847.22,61544
1,1845.86,61541
1,1844.5,61529
1,1843.14,61519
1,1841.78,61526
1,1840.42,61530
1,1839.06,61515
1,1837.7,61494
1,1836.34,61535
1,1834.98,61524
1,1833.62,61515
1,1832.26,61532
1,1830.9,61515
1,1829.54,61520
1,1828.18,61525
1,1826.81,61509
1,1825.45,61512
1,1824.09,61512
1,1822.73,61519
1,1821.36,61516
1,1820,61511
1,1818.63,61498
1,1817.27,61497
1,1815.91,61504
1,1814.54,61504
1,1813.18,61505
1,1811.81,61488
1,1810.45,61495
1,1809.08,61508
1,1807.71,61510
1,1806.35,61498
1,1804.98,61499
1,1803.61,61499
1,1802.25,61521
1,1800.88,61491
1,1799.51,61508
1,1798.14,61496
1,1796.78,61480
1,1795.41,61509
1,1794.04,61508
1,1792.67,61496
1,1791.3,61483
1,1789.93,61504
1,1788.56,61486
1,1787.19,61490
1,1785.82,61499
1,1784.45,61492
1,1783.08,61483
1,1781.71,61484
1,1780.34,61484
1,1778.96,61499
1,1777.59,61473
1,1776.22,61489
1,1774.85,61495
1,1773.48,61489
1,1772.1,61500
1,1770.73,61488
1,1769.36,61493
1,1767.98,61502
1,1766.61,61492
1,1765.23,61488
1,1763.86,61494
1,1762.48,61485
1,1761.11,61472
1,1759.73,61499
1,1758.36,61497
1,1756.98,61509
1,1755.61,61482
1,1754.23,61482
1,1752.85,61497
1,1751.47,61494
1,1750.1,61482
1,1748.72,61483
1,1747.34,61492
1,1745.96,61486
1,1744.59,61483
1,1743.21,61484
1,1741.83,61491
1,1740.45,61493
1,1739.07,61491
1,1737.69,61488
1,1736.31,61506
1,1734.93,61496
1,1733.55,61504
1,1732.17,61492
1,1730.79,61497
1,1729.41,61490
1,1728.02,61470
1,1726.64,61493
1,1725.26,61498
1,1723.88,61497
1,1722.49,61503
1,1721.11,61467
1,1719.73,61502
1,1718.34,61484
1,1716.96,61485
1,1715.58,61484
1,1714.19,61490
1,1712.81,61495
1,1711.42,61497
1,1710.04,61507
1,1708.65,61488
1,1707.27,61490
1,1705.88,61505
1,1704.49,61502
1,1703.11,61486
1,1701.72,61485
1,1700.33,61503
1,1698.95,61475
1,1697.56,61510
1,1696.17,61502
1,1694.78,61482
1,1693.39,61486
1,1692.01,61507
1,1690.62,61497
1,1689.23,61508
1,1687.84,61483
1,1686.45,61508
1,1685.06,61505
1,1683.67,61512
1,1682.28,61504
1,1680.89,61496
1,1679.49,61505
1,1678.1,61519
1,1676.71,61505
1,1675.32,61503
1,1673.93,61513
1,1672.53,61503
1,1671.14,61504
1,1669.75,61511
1,1668.36,61514
1,1666.96,61516
1,1665.57,61496
1,1664.17,61518
1,1662.78,61507
1,1661.38,61517
1,1659.99,61515
1,1658.59,61512
1,1657.2,61521
1,1655.8,61521
1,1654.41,61543
1,1653.01,61534
1,1651.61,61519
1,1650.22,61541
1,1648.82,61514
1,1647.42,61545
1,1646.02,61527
1,1644.63,61533
1,1643.23,61518
1,1641.83,61535
1,1640.43,61539
1,1639.03,61523
1,1637.63,61549
1,1636.23,61533
1,1634.83,61531
1,1633.43,61530
1,1632.03,61525
1,1630.63,61531
1,1629.23,61518
1,1627.83,61528
1,1626.43,61535
1,1625.02,61538
1,1623.62,61527
1,1622.22,61532
1,1620.82,61530
1,1619.41,61522
1,1618.01,61533
1,1616.61,61507
1,1615.2,61551
1,1613.8,61527
1,1612.39,61532
1,1610.99,61532
1,1609.58,61543
1,1608.18,61544
1,1606.77,61528
1,1605.37,61529
1,1603.96,61541
1,1602.56,61540
1,1601.15,61547
1,1599.74,61535
1,1598.33,61550
1,1596.93,61530
1,1595.52,61560
1,1594.11,61537
1,1592.7,61540
1,1591.29,61534
1,1589.89,61566
1,1588.48,61524
1,1587.07,61546
1,1585.66,61547
1,1584.25,61555
1,1582.84,61539
1,1581.43,61516
1,1580.02,61536
1,1578.6,61540
1,1577.19,61532
1,1575.78,61535
1,1574.37,61567
1,1572.96,61534
1,1571.54,61537
1,1570.13,61546
1,1568.72,61523
1,1567.3,61538
1,1565.89,61540
1,1564.48,61536
1,1563.06,61538
1,1561.65,61553
1,1560.23,61538
1,1558.82,61547
1,1557.4,61551
1,1555.99,61535
1,1554.57,61554
1,1553.16,61543
1,1551.74,61543
1,1550.32,61533
1,1548.91,61529
1,1547.49,61551
1,1546.07,61549
1,1544.65,61535
1,1543.23,61540
1,1541.82,61550
1,1540.4,61538
1,1538.98,61558
1,1537.56,61540
1,1536.14,61528
1,1534.72,61555
1,1533.3,61554
1,1531.88,61537
1,1530.46,61526
1,1529.04,61545
1,1527.62,61551
1,1526.19,61541
1,1524.77,61557
1,1523.35,61538
1,1521.93,61534
1,1520.51,61518
1,1519.08,61522
1,1517.66,61549
1,1516.24,61529
1,1514.81,61547
1,1513.39,61553
1,1511.96,61545
1,1510.54,61531
1,1509.11,61521
1,1507.69,61557
1,1506.26,61548
1,1504.84,61545
1,1503.41,61546
1,1501.98,61561
1,1500.56,61542
1,1499.13,61553
1,1497.7,61552
1,1496.28,61537
1,1494.85,61548
1,1493.42,61550
1,1491.99,61530
1,1490.56,61559
1,1489.13,61541
1,1487.71,61531
1,1486.28,61542
1,1484.85,61571
1,1483.42,61537
1,1481.99,61549
1,1480.55,61529
1,1479.12,61558
1,1477.69,61544
1,1476.26,61538
1,1474.83,61536
1,1473.4,61538
1,1471.96,61537
1,1470.53,61551
1,1469.1,61552
1,1467.67,61542
1,1466.23,61551
1,1464.8,61550
1,1463.36,61542
1,1461.93,61526
1,1460.5,61532
1,1459.06,61547
1,1457.63,61539
1,1456.19,61544
1,1454.75,61554
1,1453.32,61542
1,1451.88,61548
1,1450.44,61559
1,1449.01,61548
1,1447.57,61542
1,1446.13,61548
1,1444.7,61549
1,1443.26,61537
1,1441.82,61549
1,1440.38,61532
1,1438.94,61543
1,1437.5,61545
1,1436.06,61558
1,1434.62,61549
1,1433.18,61542
1,1431.74,61537
1,1430.3,61540
1,1428.86,61561
1,1427.42,61550
1,1425.98,61557
1,1424.54,61554
1,1423.09,61547
1,1421.65,61553
1,1420.21,61550
1,1418.77,61530
1,1417.32,61556
1,1415.88,61529
1,1414.43,61531
1,1412.99,61534
1,1411.55,61530
1,1410.1,61543
1,1408.66,61548
1,1407.21,61544
1,1405.76,61545
1,1404.32,61545
1,1402.87,61534
1,1401.43,61536
1,1399.98,61544
1,1398.53,61546
1,1397.09,61532
1,1395.64,61539
1,1394.19,61556
1,1392.74,61551
1,1391.29,61558
1,1389.84,61543
1,1388.39,61552
1,1386.95,61546
1,1385.5,61550
1,1384.05,61528
1,1382.6,61542
1,1381.14,61535
1,1379.69,61556
1,1378.24,61526
1,1376.79,61545
1,1375.34,61538
1,1373.89,61551
1,1372.44,61546
1,1370.98,61557
1,1369.53,61534
1,1368.08,61543
1,1366.62,61537
1,1365.17,61550
1,1363.71,61541
1,1362.26,61547
1,1360.81,61546
1,1359.35,61532
1,1357.9,61530
1,1356.44,61544
1,1354.98,61523
1,1353.53,61537
1,1352.07,61551
1,1350.61,61551
1,1349.16,61530
1,1347.7,61558
1,1346.24,61548
1,1344.79,61542
1,1343.33,61522
1,1341.87,61529
1,1340.41,61547
1,1338.95,61555
1,1337.49,61558
1,1336.03,61541
1,1334.57,61556
1,1333.11,61562
1,1331.65,61531
1,1330.19,61533
1,1328.73,61542
1,1327.27,61544
1,1325.81,61549
1,1324.34,61530
1,1322.88,61550
1,1321.42,61553
1,1319.96,61532
1,1318.49,61516
1,1317.03,61550
1,1315.57,61549
1,1314.1,61555
1,1312.64,61554
1,1311.17,61548
1,1309.71,61535
1,1308.24,61554
1,1306.78,61557
1,1305.31,61534
1,1303.84,61544
1,1302.38,61551
1,1300.91,61543
1,1299.44,61538
1,1297.98,61556
1,1296.51,61548
1,1295.04,61539
1,1293.57,61533
1,1292.1,61568
1,1290.64,61564
1,1289.17,61549
1,1287.7,61532
1,1286.23,61539
1,1284.76,61544
1,1283.29,61541
1,1281.82,61529
1,1280.34,61548
1,1278.87,61557
1,1277.4,61542
1,1275.93,61550
1,1274.46,61551
1,1272.99,61539
1,1271.51,61552
1,1270.04,61526
1,1268.57,61558
1,1267.09,61546
1,1265.62,61537
1,1264.14,61544
1,1262.67,61562
1,1261.2,61546
1,1259.72,61538
1,1258.25,61557
1,1256.77,61548
1,1255.29,61549
1,1253.82,61547
1,1252.34,61549
1,1250.86,61581
1,1249.39,61531
1,1247.91,61534
1,1246.43,61546
1,1244.95,61541
1,1243.47,61523
1,1242,61538
1,1240.52,61539
1,1239.04,61536
1,1237.56,61531
1,1236.08,61540
1,1234.6,61537
1,1233.12,61548
1,1231.64,61550
1,1230.16,61521
1,1228.67,61560
1,1227.19,61548
1,1225.71,61545
1,1224.23,61560
1,1222.75,61529
1,1221.26,61538
1,1219.78,61533
1,1218.3,61553
1,1216.81,61558
1,1215.33,61547
1,1213.84,61541
1,1212.36,61544
1,1210.87,61535
1,1209.39,61556
1,1207.9,61542
1,1206.42,61535
1,1204.93,61544
1,1203.44,61530
1,1201.96,61555
1,1200.47,61535
1,1198.98,61556
1,1197.49,61558
1,1196.01,61544
1,1194.52,61567
1,1193.03,61543
1,1191.54,61554
1,1190.05,61531
1,1188.56,61534
1,1187.07,61537
1,1185.58,61541
1,1184.09,61566
1,1182.6,61534
1,1181.11,61534
1,1179.62,61538
1,1178.13,61554
1,1176.63,61556
1,1175.14,61531
1,1173.65,61535
1,1172.16,61549
1,1170.66,61551
1,1169.17,61542
1,1167.68,61534
1,1166.18,61558
1,1164.69,61553
1,1163.19,61550
1,1161.7,61540
1,1160.2,61526
1,1158.71,61537
1,1157.21,61537
1,1155.71,61540
1,1154.22,61554
1,1152.72,61551
1,1151.22,61549
1,1149.73,61512
1,1148.23,61546
1,1146.73,61528
1,1145.23,61539
1,1143.73,61535
1,1142.23,61543
1,1140.73,61532
1,1139.23,61544
1,1137.73,61558
1,1136.23,61537
1,1134.73,61543
1,1133.23,61543
1,1131.73,61544
1,1130.23,61531
1,1128.73,61537
1,1127.23,61539
1,1125.72,61535
1,1124.22,61541
1,1122.72,61549
1,1121.21,61545
1,1119.71,61564
1,1118.21,61534
1,1116.7,61546
1,1115.2,61518
1,1113.69,61553
1,1112.19,61556
1,1110.68,61554
1,1109.18,61543
1,1107.67,61531
1,1106.16,61521
1,1104.66,61544
1,1103.15,61529
1,1101.64,61526
1,1100.14,61532
1,1098.63,61531
1,1097.12,61536
1,1095.61,61557
1,1094.1,61559
1,1092.59,61529
1,1091.08,61550
1,1089.57,61552
1,1088.06,61531
1,1086.55,61549
1,1085.04,61552
1,1083.53,61543
1,1082.02,61542
1,1080.51,61532
1,1079,61541
1,1077.48,61535
1,1075.97,61524
1,1074.46,61534
1,1072.94,61547
1,1071.43,61553
1,1069.92,61553
1,1068.4,61546
1,1066.89,61542
1,1065.37,61557
1,1063.86,61542
1,1062.34,61533
1,1060.83,61543
1,1059.31,61534
1,1057.8,61538
1,1056.28,61552
1,1054.76,61538
1,1053.24,61537
1,1051.73,61550
1,1050.21,61558
1,1048.69,61568
1,1047.17,61547
1,1045.65,61545
1,1044.13,61542
1,1042.61,61529
1,1041.09,61548
1,1039.57,61537
1,1038.05,61549
1,1036.53,61550
1,1035.01,61550
1,1033.49,61532
1,1031.97,61535
1,1030.45,61535
1,1028.93,61544
1,1027.4,61541
1,1025.88,61549
1,1024.36,61539
1,1022.83,61559
1,1021.31,61551
1,1019.78,61545
1,1018.26,61532
1,1016.74,61523
1,1015.21,61566
1,1013.68,61567
1,1012.16,61670
1,1010.63,61556
1,1009.11,61561
1,1007.58,61545
1,1006.05,61555
1,1004.53,61551
1,1003,61534
1,1001.47,61560
1,999.942,61540
1,998.413,61536
1,996.884,61545
1,995.355,61542
1,993.825,61551
1,992.296,61543
1,990.765,61546
1,989.235,61535
1,987.704,61549
1,986.173,61549
1,984.642,61540
1,983.11,61532
1,981.578,61534
1,980.045,61557
1,978.513,61544
1,976.98,61529
1,975.446,61547
1,973.913,61556
1,972.379,61551
1,970.844,61535
1,969.31,61539
1,967.775,61548
1,966.24,61524
1,964.704,61533
1,963.168,61549
1,961.632,61555
1,960.095,61541
1,958.559,61531
1,957.021,61548
1,955.484,61550
1,953.946,61542
1,952.408,61542
1,950.87,61531
1,949.331,61528
1,947.792,61562
1,946.253,61546
1,944.713,61543
1,943.173,61534
1,941.632,61554
1,940.092,61543
1,938.551,61547
1,937.01,61548
1,935.468,61547
1,933.926,61546
1,932.384,61539
1,930.841,61530
1,929.298,61527
1,927.755,61538
1,926.211,61536
1,924.668,61545
1,923.123,61543
1,921.579,61552
1,920.034,61558
1,918.489,61536
1,916.944,61540
1,915.398,61546
1,913.852,61551
1,912.305,61543
1,910.758,61547
1,909.211,61540
1,907.664,61529
1,906.116,61557
1,904.568,61541
1,903.02,61532
1,901.471,61540
1,899.922,61538
1,898.373,61540
1,896.823,61539
1,895.273,61529
1,893.723,61533
1,892.172,61528
1,890.621,61535
1,889.07,61548
1,887.519,61540
1,885.967,61547
1,884.415,61545
1,882.862,61534
1,881.309,61525
1,879.756,61529
1,878.202,61537
1,876.649,61554
1,875.094,61543
1,873.54,61540
1,871.985,61531
1,870.43,61541
1,868.875,61543
1,867.319,61532
1,865.763,61546
1,864.206,61540
1,862.649,61558
1,861.092,61497
1,859.535,61525
1,857.977,61534
1,856.419,61549
1,854.861,61534
1,853.302,61559
1,851.743,61561
1,850.184,61547
1,848.624,61538
1,847.064,61532
1,845.504,61550
1,843.943,61534
1,842.382,61534
1,840.821,61531
1,839.259,61534
1,837.697,61545
1,836.135,61549
1,834.572,61550
1,833.009,61549
1,831.446,61552
1,829.882,61535
1,828.319,61538
1,826.754,61557
1,825.19,61544
1,823.625,61532
1,822.06,61548
1,820.494,61536
1,818.928,61548
1,817.362,61532
1,815.795,61517
1,814.229,61533
1,812.661,61531
1,811.094,61535
1,809.526,61538
1,807.958,61531
1,806.389,61538
1,804.821,61553
1,803.251,61538
1,801.682,61545
1,800.112,61559
1,798.542,61524
1,796.971,61550
1,795.401,61566
1,793.83,61567
1,792.258,61543
1,790.686,61527
1,789.114,61541
1,787.542,61532
1,785.969,61537
1,784.396,61559
1,782.822,61536
1,781.249,61519
1,779.675,61540
1,778.1,61538
1,776.525,61543
1,774.95,61530
1,773.375,61541
1,771.799,61554
1,770.223,61535
1,768.647,61532
1,767.07,61560
1,765.493,61532
1,763.915,61543
1,762.338,61532
1,760.76,61536
1,759.181,61533
1,757.603,61546
1,756.023,61558
1,754.444,61535
1,752.864,61520
1,751.284,61537
1,749.704,61543
1,748.123,61555
1,746.542,61549
1,744.961,61542
1,743.379,61530
1,741.797,61557
1,740.215,61549
1,738.632,61544
1,737.049,61542
1,735.466,61547
1,733.882,61549
1,732.298,61541
1,730.713,61546
1,729.129,61555
1,727.544,61552
1,725.958,61557
1,724.373,61543
1,722.787,61548
1,721.2,61552
1,719.614,61537
1,718.027,61549
1,716.439,61539
1,714.851,61549
1,713.263,61520
1,711.675,61527
1,710.086,61544
1,708.497,61535
1,706.908,61536
1,705.318,61545
1,703.728,61545
1,702.138,61539
1,700.547,61532
1,698.956,61544
1,697.365,61525
1,695.773,61528
1,694.181,61534
1,692.588,61526
1,690.996,61541
1,689.403,61544
1,687.809,61549
1,686.215,61536
1,684.621,61520
1,683.027,61555
1,681.432,61541
1,679.837,61538
1,678.242,61556
1,676.646,61533
1,675.05,61531
1,673.453,61541
1,671.857,61542
1,670.26,61557
1,668.662,61555
1,667.064,61531
1,665.466,61536
1,663.868,61529
1,662.269,61527
1,660.67,61532
1,659.07,61529
1,657.471,61539
1,655.87,61565
1,654.27,61528
1,652.669,61530
1,651.068,61542
1,649.466,61541
1,647.865,61550
1,646.262,61546
1,644.66,61537
1,643.057,61535
1,641.454,61531
1,639.85,61561
1,638.247,61561
1,636.642,61537
1,635.038,61536
1,633.433,61546
1,631.828,61535
1,630.222,61528
1,628.616,61550
1,627.01,61536
1,625.403,61533
1,623.796,61541
1,622.189,61529
1,620.582,61550
1,618.974,61520
1,617.365,61543
1,615.757,61546
1,614.148,61541
1,612.538,61549
1,610.929,61553
1,609.319,61537
1,607.708,61534
1,606.098,61542
1,604.487,61549
1,602.875,61534
1,601.264,61519
1,599.652,61530
1,598.039,61536
1,596.426,61539
1,594.813,61522
1,593.2,61543
1,591.586,61547
1,589.972,61543
1,588.358,61522
1,586.743,61525
1,585.128,61537
1,583.512,61523
1,581.897,61546
1,580.28,61539
1,578.664,61549
1,577.047,61548
1,575.43,61536
1,573.812,61578
1,572.194,61542
1,570.576,61528
1,568.958,61550
1,567.339,61553
1,565.72,61550
1,564.1,61543
1,562.48,61520
1,560.86,61533
1,559.239,61538
1,557.618,61532
1,555.997,61540
1,554.375,61540
1,552.753,61546
1,551.131,61534
1,549.508,61550
1,547.885,61554
1,546.262,61523
1,544.638,61542
1,543.014,61536
1,541.389,61530
1,539.765,61545
1,538.14,61547
1,536.514,61532
1,534.888,61543
1,533.262,61527
1,531.636,61527
1,530.009,61537
1,528.382,61538
1,526.754,61524
1,525.126,61527
1,523.498,61546
1,521.869,61526
1,520.24,61543
1,518.611,61527
1,516.982,61539
1,515.352,61526
1,513.721,61545
1,512.091,61540
1,510.46,61538
1,508.828,61556
1,507.197,61525
1,505.565,61524
1,503.932,61527
1,502.299,61548
1,500.666,61526
1,499.033,61537
1,497.399,61529
1,495.765,61537
1,494.13,61557
1,492.496,61530
1,490.86,61557
1,489.225,61561
1,487.589,61547
1,485.953,61538
1,484.316,61539
1,482.679,61525
1,481.042,61562
1,479.404,61549
1,477.766,61527
1,476.128,61536
1,474.489,61547
1,472.85,61514
1,471.211,61532
1,469.571,61514
1,467.931,61548
1,466.29,61548
1,464.65,61534
1,463.008,61535
1,461.367,61549
1,459.725,61562
1,458.083,61555
1,456.44,61540
1,454.797,61541
1,453.154,61543
1,451.511,61531
1,449.867,61537
1,448.222,61553
1,446.578,61549
1,444.933,61531
1,443.287,61530
1,441.642,61533
1,439.995,61546
1,438.349,61545
1,436.702,61550
1,435.055,61541
1,433.408,61537
1,431.76,61524
1,430.112,61546
1,428.463,61536
1,426.814,61522
1,425.165,61549
1,423.515,61537
1,421.865,61557
1,420.215,61532
1,418.564,61551
1,416.913,61537
1,415.262,61548
1,413.61,61539
1,411.958,61523
1,410.306,61535
1,408.653,61524
1,407,61544
1,405.346,61548
1,403.692,61571
1,402.038,61538
1,400.383,61537
1,398.729,61527
1,397.073,61537
1,395.418,61544
1,393.762,61524
1,392.105,61534
1,390.449,61538
1,388.791,61534
1,387.134,61549
1,385.476,61549
1,383.818,61544
1,382.16,61540
1,380.501,61520
1,378.842,61528
1,377.182,61540
1,375.522,61526
1,373.862,61541
1,372.201,61563
1,370.54,61555
1,368.879,61546
1,367.217,61541
1,365.555,61530
1,363.893,61532
1,362.23,61530
1,360.567,61535
1,358.903,61532
1,357.239,61538
1,355.575,61553
1,353.911,61519
1,352.246,61549
1,350.58,61546
1,348.915,61543
1,347.249,61544
1,345.582,61525
1,343.916,61543
1,342.249,61543
1,340.581,61523
1,338.913,61531
1,337.245,61542
1,335.577,61545
1,333.908,61518
1,332.238,61559
1,330.569,61531
1,328.899,61531
1,327.229,61561
1,325.558,61538
1,323.887,61528
1,322.215,61545
1,320.544,61536
1,318.871,61546
1,317.199,61529
1,315.526,61534
1,313.853,61532
1,312.179,61523
1,310.505,61525
1,308.831,61529
1,307.156,61534
1,305.481,61539
1,303.806,61558
1,302.13,61543
1,300.454,61533
1,298.778,61534
1,297.101,61538
1,295.424,61526
1,293.746,61545
1,292.068,61533
1,290.39,61535
1,288.711,61534
1,287.032,61545
1,285.353,61527
1,283.673,61530
1,281.993,61536
1,280.312,61519
1,278.632,61532
1,276.95,61545
1,275.269,61532
1,273.587,61553
1,271.905,61525
1,270.222,61541
1,268.539,61541
1,266.856,61568
1,265.172,61528
1,263.488,61531
1,261.803,61542
1,260.118,61542
1,258.433,61541
1,256.748,61532
1,255.062,61540
1,253.375,61550
1,251.689,61543
1,250.002,61538
1,248.314,61559
1,246.626,61543
1,244.938,61551
1,243.25,61543
1,241.561,61538
1,239.872,61521
1,238.182,61537
1,236.492,61568
1,234.802,61535
1,233.111,61504
1,231.42,61532
1,229.729,61527
1,228.037,61540
1,226.345,61538
1,224.652,61531
1,222.959,61531
1,221.266,61534
1,219.572,61525
1,217.878,61534
1,216.184,61524
1,214.489,61530
1,212.794,61532
1,211.098,61543
1,209.403,61533
1,207.706,61538
1,206.01,61541
1,204.313,61543
1,202.615,61532
1,200.918,61537
1,199.22,61526
1,197.521,61535
1,195.822,61545
1,194.123,61526
1,192.424,61538
1,190.724,61547
1,189.023,61535
1,187.323,61528
1,185.622,61525
1,183.92,61521
1,182.219,61531
1,180.516,61525
1,178.814,61515
1,177.111,61543
1,175.408,61540
1,173.704,61530
1,172,61521
1,170.296,61534
1,168.591,61495
1,166.886,61523
1,165.18,61512
1,163.474,61540
1,161.768,61544
1,160.062,61520
1,158.355,61524
1,156.647,61529
1,154.94,61540
1,153.231,61525
1,151.523,61532
1,149.814,61532
1,148.105,61539
1,146.395,61523
1,144.685,61529
1,142.975,61541
1,141.264,61527
1,139.553,61527
1,137.842,61540
1,136.13,61544
1,134.418,61532
1,132.705,61515
1,130.992,61538
1,129.279,61538
1,127.565,61540
1,125.851,61541
1,124.137,61547
1,122.422,61521
1,120.707,61549
1,118.991,61545
1,117.275,61526
1,115.559,61526
1,113.842,61533
1,112.125,61546
1,110.407,61527
1,108.69,61537
1,106.971,61541
1,105.253,61521
1,103.534,61526
1,101.815,61527
1,100.095,61528
1,98.3747,61533
1,96.6542,61529
1,94.9334,61535
1,93.2122,61536
1,91.4906,61532
1,89.7686,61523
1,88.0462,61525
1,86.3235,61514
1,84.6004,61537
1,82.8769,61550
1,81.153,61532
1,79.4288,61537
1,77.7041,61541
1,75.9791,61549
1,74.2538,61530
1,72.528,61553
1,70.8019,61556
1,69.0753,61538
1,67.3484,61534
1,65.6212,61522
1,63.8935,61526
1,62.1655,61516
1,60.4371,61534
1,58.7083,61533
1,56.9791,61548
1,55.2495,61509
1,53.5196,61530
1,51.7893,61523
1,50.0586,61547
1,48.3275,61525
1,46.5961,61531
1,44.8642,61515
1,43.132,61528
1,41.3994,61516
1,39.6665,61518
1,37.9331,61519
1,36.1994,61528
1,34.4652,61524
1,32.7307,61542
1,30.9958,61517
1,29.2606,61526
1,27.5249,61517
1,25.7889,61532
1,24.0525,61522
1,22.3157,61529
1,20.5785,61526
1,18.841,61522
1,17.103,61516
1,15.3647,61530
1,13.626,61513
1,11.8869,61517
1,10.1474,61537
1,8.40756,61526
1,6.66732,61516
1,4.92669,61530
1,3.18569,61536
1,1.44429,61520
1,-0.297481,61510
1,-2.03964,61525
1,-3.78218,61522
1,-5.52511,61537
1,-7.26843,61519
1,-9.01212,61516
1,-10.7562,61519
1,-12.5007,61533
1,-14.2455,61514
1,-15.9908,61531
1,-17.7364,61531
1,-19.4824,61522
1,-21.2288,61528
1,-22.9756,61552
1,-24.7227,61535
1,-26.4703,61517
1,-28.2182,61518
1,-29.9665,61531
1,-31.7152,61539
1,-33.4643,61532
1,-35.2138,61527
1,-36.9637,61528
1,-38.7139,61530
1,-40.4646,61513
1,-42.2156,61525
1,-43.967,61519
1,-45.7188,61535
1,-47.471,61512
1,-49.2236,61496
1,-50.9765,61525
1,-52.7299,61506
1,-54.4836,61526
1,-56.2378,61520
1,-57.9923,61509
1,-59.7472,61473
1,-61.5025,61433
1,-63.2582,61456
1,-65.0142,61433
1,-66.7707,61803
2,1981.76,61567
2,1980.43,61540
2,1979.09,61539
2,1977.76,61570
2,1976.43,61549
2,1975.09,61558
2,1973.76,61552
2,1972.43,61540
2,1971.09,61549
2,1969.76,61561
2,1968.42,61562
2,1967.09,61550
2,1965.75,61556
2,1964.42,61560
2,1963.08,61553
2,1961.74,61552
2,1960.41,61560
2,1959.07,61551
2,1957.73,61553
2,1956.4,61541
2,1955.06,61543
2,1953.72,61546
2,1952.38,61551
2,1951.04,61538
2,1949.71,61557
2,1948.37,61553
2,1947.03,61566
2,1945.69,61562
2,1944.35,61565
2,1943.01,61557
2,1941.67,61551
2,1940.33,61546
2,1938.99,61559
2,1937.65,61544
2,1936.31,61563
2,1934.97,61553
2,1933.62,61563
2,1932.28,61550
2,1930.94,61556
2,1929.6,61532
2,1928.26,61560
2,1926.91,61542
2,1925.57,61548
2,1924.23,61597
2,1922.88,61552
2,1921.54,61548
2,1920.19,61558
2,1918.85,61537
2,1917.51,61542
2,1916.16,61557
2,1914.82,61553
2,1913.47,61580
2,1912.12,61560
2,1910.78,61552
2,1909.43,61554
2,1908.09,61558
2,1906.74,61545
2,1905.39,61570
2,1904.04,61555
2,1902.7,61555
2,1901.35,61555
2,1900,61571
2,1898.65,61560
2,1897.3,61545
2,1895.95,61555
2,1894.61,61553
2,1893.26,61557
2,1891.91,61543
2,1890.56,61544
2,1889.21,61534
2,1887.86,61561
2,1886.51,61569
2,1885.15,61544
2,1883.8,61578
2,1882.45,61561
2,1881.1,61562
2,1879.75,61542
2,1878.4,61556
2,1877.04,61556
2,1875.69,61562
2,1874.34,61564
2,1872.98,61563
2,1871.63,61564
2,1870.28,61573
2,1868.92,61550
2,1867.57,61560
2,1866.21,61553
2,1864.86,61553
2,1863.5,61551
2,1862.15,61548
2,1860.79,61553
2,1859.44,61555
2,1858.08,61550
2,1856.72,61552
2,1855.37,61549
2,1854.01,61558
2,1852.65,61559
2,1851.29,61550
2,1849.94,61558
2,1848.58,61536
2,1847.22,61558
2,1845.86,61534
2,1844.5,61558
2,1843.14,61574
2,1841.78,61530
2,1840.42,61567
2,1839.06,61563
2,1837.7,61563
2,1836.34,61579
2,1834.98,61544
2,1833.62,61548
2,1832.26,61549
2,1830.9,61538
2,1829.54,61556
2,1828.18,61540
2,1826.81,61530
2,1825.45,61530
2,1824.09,61538
2,1822.73,61535
2,1821.36,61538
2,1820,61537
2,1818.63,61536
2,1817.27,61519
2,1815.91,61546
2,1814.54,61523
2,1813.18,61525
2,1811.81,61526
2,1810.45,61518
2,1809.08,61518
2,1807.71,61525
2,1806.35,61542
2,1804.98,61516
2,1803.61,61524
2,1802.25,61531
2,1800.88,61515
2,1799.51,61519
2,1798.14,61537
2,1796.78,61522
2,1795.41,61545
2,1794.04,61525
2,1792.67,61537
2,1791.3,61510
2,1789.93,61519
2,1788.56,61513
2,1787.19,61511
2,1785.82,61520
2,1784.45,61519
2,1783.08,61507
2,1781.71,61500
2,1780.34,61522
2,1778.96,61502
2,1777.59,61520
2,1776.22,61502
2,1774.85,61525
2,1773.48,61518
2,1772.1,61514
2,1770.73,61520
2,1769.36,61527
2,1767.98,61518
2,1766.61,61500
2,1765.23,61515
2,1763.86,61513
2,1762.48,61508
2,1761.11,61536
2,1759.73,61532
2,1758.36,61516
2,1756.98,61503
2,1755.61,61529
2,1754.23,61512
2,1752.85,61515
2,1751.47,61515
2,1750.1,61516
2,1748.72,61522
2,1747.34,61524
2,1745.96,61519
2,1744.59,61505
2,1743.21,61512
2,1741.83,61510
2,1740.45,61533
2,1739.07,61518
2,1737.69,61499
2,1736.31,61511
2,1734.93,61505
2,1733.55,61509
2,1732.17,61514
2,1730.79,61535
2,1729.41,61497
2,1728.02,61509
2,1726.64,61521
2,1725.26,61501
2,1723.88,61523
2,1722.49,61515
2,1721.11,61513
2,1719.73,61509
2,1718.34,61522
2,1716.96,61499
2,1715.58,61517
2,1714.19,61494
2,1712.81,61522
2,1711.42,61496
2,1710.04,61510
2,1708.65,61523
2,1707.27,61519
2,1705.88,61517
2,1704.49,61509
2,1703.11,61539
2,1701.72,61503
2,1700.33,61520
2,1698.95,61505
2,1697.56,61531
2,1696.17,61516
2,1694.78,61509
2,1693.39,61515
2,1692.01,61531
2,1690.62,61502
2,1689.23,61513
2,1687.84,61533
2,1686.45,61511
2,1685.06,61518
2,1683.67,61510
2,1682.28,61532
2,1680.89,61521
2,1679.49,61544
2,1678.1,61533
2,1676.71,61523
2,1675.32,61521
2,1673.93,61524
2,1672.53,61529
2,1671.14,61521
2,1669.75,61534
2,1668.36,61552
2,1666.96,61544
2,1665.57,61551
2,1664.17,61527
2,1662.78,61527
2,1661.38,61546
2,1659.99,61546
2,1658.59,61538
2,1657.2,61544
2,1655.8,61550
2,1654.41,61553
2,1653.01,61531
2,1651.61,61542
2,1650.22,61544
2,1648.82,61548
2,1647.42,61554
2,1646.02,61558
2,1644.63,61560
2,1643.23,61536
2,1641.83,61551
2,1640.43,61540
2,1639.03,61556
2,1637.63,61549
2,1636.23,61552
2,1634.83,61563
2,1633.43,61561
2,1632.03,61557
2,1630.63,61564
2,1629.23,61551
2,1627.83,61555
2,1626.43,61566
2,1625.02,61555
2,1623.62,61552
2,1622.22,61563
2,1620.82,61553
2,1619.41,61562
2,1618.01,61552
2,1616.61,61564
2,1615.2,61557
2,1613.8,61554
2,1612.39,61549
2,1610.99,61575
2,1609.58,61554
2,1608.18,61566
2,1606.77,61555
2,1605.37,61558
2,1603.96,61564
2,1602.56,61566
2,1601.15,61552
2,1599.74,61561
2,1598.33,61571
2,1596.93,61560
2,1595.52,61558
2,1594.11,61560
2,1592.7,61561
2,1591.29,61563
2,1589.89,61546
2,1588.48,61588
2,1587.07,61557
2,1585.66,61567
2,1584.25,61566
2,1582.84,61566
2,1581.43,61563
2,1580.02,61560
2,1578.6,61584
2,1577.19,61547
2,1575.78,61554
2,1574.37,61559
2,1572.96,61564
2,1571.54,61573
2,1570.13,61561
2,1568.72,61575
2,1567.3,61546
2,1565.89,61544
2,1564.48,61574
2,1563.06,61559
2,1561.65,61550
2,1560.23,61572
2,1558.82,61558
2,1557.4,61572
2,1555.99,61554
2,1554.57,61554
2,1553.16,61583
2,1551.74,61583
2,1550.32,61571
2,1548.91,61578
2,1547.49,61561
2,1546.07,61565
2,1544.65,61563
2,1543.23,61564
2,1541.82,61580
2,1540.4,61552
2,1538.98,61559
2,1537.56,61566
2,1536.14,61549
2,1534.72,61563
2,1533.3,61578
2,1531.88,61582
2,1530.46,61548
2,1529.04,61576
2,1527.62,61569
2,1526.19,61566
2,1524.77,61551
2,1523.35,61573
2,1521.93,61562
2,1520.51,61548
2,1519.08,61576
2,1517.66,61566
2,1516.24,61568
2,1514.81,61561
2,1513.39,61575
2,1511.96,61556
2,1510.54,61571
2,1509.11,61576
2,1507.69,61582
2,1506.26,61568
2,1504.84,61563
2,1503.41,61565
2,1501.98,61563
2,1500.56,61584
2,1499.13,61559
2,1497.7,61549
2,1496.28,61559
2,1494.85,61558
2,1493.42,61565
2,1491.99,61565
2,1490.56,61557
2,1489.13,61566
2,1487.71,61566
2,1486.28,61562
2,1484.85,61580
2,1483.42,61532
2,1481.99,61570
2,1480.55,61567
2,1479.12,61552
2,1477.69,61553
2,1476.26,61553
2,1474.83,61562
2,1473.4,61562
2,1471.96,61574
2,1470.53,61566
2,1469.1,61568
2,1467.67,61566
2,1466.23,61556
2,1464.8,61569
2,1463.36,61555
2,1461.93,61562
2,1460.5,61573
2,1459.06,61566
2,1457.63,61556
2,1456.19,61544
2,1454.75,61574
2,1453.32,61569
2,1451.88,61556
2,1450.44,61575
2,1449.01,61582
2,1447.57,61552
2,1446.13,61567
2,1444.7,61576
2,1443.26,61552
2,1441.82,61571
2,1440.38,61575
2,1438.94,61555
2,1437.5,61576
2,1436.06,61571
2,1434.62,61573
2,1433.18,61551
2,1431.74,61561
2,1430.3,61557
2,1428.86,61561
2,1427.42,61557
2,1425.98,61571
2,1424.54,61574
2,1423.09,61555
2,1421.65,61579
2,1420.21,61585
2,1418.77,61569
2,1417.32,61578
2,1415.88,61564
2,1414.43,61572
2,1412.99,61559
2,1411.55,61567
2,1410.1,61577
2,1408.66,61568
2,1407.21,61548
2,1405.76,61561
2,1404.32,61550
2,1402.87,61565
2,1401.43,61569
2,1399.98,61545
2,1398.53,61572
2,1397.09,61582
2,1395.64,61556
2,1394.19,61569
2,1392.74,61563
2,1391.29,61545
2,1389.84,61557
2,1388.39,61552
2,1386.95,61568
2,1385.5,61555
2,1384.05,61552
2,1382.6,61579
2,1381.14,61595
2,1379.69,61560
2,1378.24,61544
2,1376.79,61560
2,1375.34,61541
2,1373.89,61569
2,1372.44,61571
2,1370.98,61548
2,1369.53,61562
2,1368.08,61559
2,1366.62,61552
2,1365.17,61565
2,1363.71,61552
2,1362.26,61565
2,1360.81,61546
2,1359.35,61563
2,1357.9,61563
2,1356.44,61578
2,1354.98,61552
2,1353.53,61557
2,1352.07,61569
2,1350.61,61573
2,1349.16,61567
2,1347.7,61559
2,1346.24,61558
2,1344.79,61549
2,1343.33,61581
2,1341.87,61579
2,1340.41,61579
2,1338.95,61579
2,1337.49,61573
2,1336.03,61579
2,1334.57,61559
2,1333.11,61548
2,1331.65,61564
2,1330.19,61552
2,1328.73,61566
2,1327.27,61573
2,1325.81,61565
2,1324.34,61548
2,1322.88,61557
2,1321.42,61557
2,1319.96,61564
2,1318.49,61553
2,1317.03,61579
2,1315.57,61571
2,1314.1,61564
2,1312.64,61553
2,1311.17,61547
2,1309.71,61561
2,1308.24,61577
2,1306.78,61580
2,1305.31,61561
2,1303.84,61567
2,1302.38,61571
2,1300.91,61564
2,1299.44,61562
2,1297.98,61554
2,1296.51,61552
2,1295.04,61556
2,1293.57,61550
2,1292.1,61555
2,1290.64,61577
2,1289.17,61560
2,1287.7,61548
2,1286.23,61575
2,1284.76,61564
2,1283.29,61567
2,1281.82,61569
2,1280.34,61577
2,1278.87,61567
2,1277.4,61570
2,1275.93,61566
2,1274.46,61570
2,1272.99,61569
2,1271.51,61573
2,1270.04,61559
2,1268.57,61575
2,1267.09,61556
2,1265.62,61552
2,1264.14,61567
2,1262.67,61548
2,1261.2,61568
2,1259.72,61568
2,1258.25,61577
2,1256.77,61547
2,1255.29,61545
2,1253.82,61571
2,1252.34,61586
2,1250.86,61564
2,1249.39,61563
2,1247.91,61556
2,1246.43,61565
2,1244.95,61566
2,1243.47,61561
2,1242,61578
2,1240.52,61571
2,1239.04,61567
2,1237.56,61557
2,1236.08,61558
2,1234.6,61556
2,1233.12,61557
2,1231.64,61569
2,1230.16,61571
2,1228.67,61573
2,1227.19,61584
2,1225.71,61565
2,1224.23,61550
2,1222.75,61581
2,1221.26,61557
2,1219.78,61555
2,1218.3,61565
2,1216.81,61561
2,1215.33,61577
2,1213.84,61552
2,1212.36,61561
2,1210.87,61564
2,1209.39,61575
2,1207.9,61560
2,1206.42,61555
2,1204.93,61566
2,1203.44,61576
2,1201.96,61567
2,1200.47,61551
2,1198.98,61574
2,1197.49,61579
2,1196.01,61568
2,1194.52,61566
2,1193.03,61554
2,1191.54,61577
2,1190.05,61566
2,1188.56,61561
2,1187.07,61554
2,1185.58,61564
2,1184.09,61567
2,1182.6,61584
2,1181.11,61566
2,1179.62,61562
2,1178.13,61565
2,1176.63,61567
2,1175.14,61550
2,1173.65,61570
2,1172.16,61571
2,1170.66,61572
2,1169.17,61568
2,1167.68,61574
2,1166.18,61577
2,1164.69,61552
2,1163.19,61556
2,1161.7,61559
2,1160.2,61561
2,1158.71,61557
2,1157.21,61572
2,1155.71,61556
2,1154.22,61576
2,1152.72,61552
2,1151.22,61563
2,1149.73,61557
2,1148.23,61556
2,1146.73,61556
2,1145.23,61570
2,1143.73,61542
2,1142.23,61578
2,1140.73,61558
2,1139.23,61560
2,1137.73,61554
2,1136.23,61570
2,1134.73,61569
2,1133.23,61568
2,1131.73,61561
2,1130.23,61578
2,1128.73,61557
2,1127.23,61557
2,1125.72,61558
2,1124.22,61562
2,1122.72,61565
2,1121.21,61563
2,1119.71,61564
2,1118.21,61568
2,1116.7,61561
2,1115.2,61553
2,1113.69,61563
2,1112.19,61558
2,1110.68,61554
2,1109.18,61558
2,1107.67,61557
2,1106.16,61571
2,1104.66,61563
2,1103.15,61569
2,1101.64,61558
2,1100.14,61557
2,1098.63,61565
2,1097.12,61553
2,1095.61,61557
2,1094.1,61569
2,1092.59,61570
2,1091.08,61566
2,1089.57,61558
2,1088.06,61554
2,1086.55,61556
2,1085.04,61563
2,1083.53,61551
2,1082.02,61553
2,1080.51,61573
2,1079,61559
2,1077.48,61553
2,1075.97,61562
2,1074.46,61573
2,1072.94,61543
2,1071.43,61580
2,1069.92,61585
2,1068.4,61576
2,1066.89,61579
2,1065.37,61569
2,1063.86,61545
2,1062.34,61577
2,1060.83,61569
2,1059.31,61555
2,1057.8,61577
2,1056.28,61553
2,1054.76,61574
2,1053.24,61554
2,1051.73,61563
2,1050.21,61560
2,1048.69,61561
2,1047.17,61553
2,1045.65,61557
2,1044.13,61554
2,1042.61,61585
2,1041.09,61557
2,1039.57,61563
2,1038.05,61571
2,1036.53,61563
2,1035.01,61549
2,1033.49,61562
2,1031.97,61575
2,1030.45,61570
2,1028.93,61567
2,1027.4,61563
2,1025.88,61543
2,1024.36,61575
2,1022.83,61552
2,1021.31,61575
2,1019.78,61578
2,1018.26,61565
2,1016.74,61574
2,1015.21,61568
2,1013.68,61569
2,1012.16,61688
2,1010.63,61567
2,1009.11,61578
2,1007.58,61551
2,1006.05,61572
2,1004.53,61566
2,1003,61570
2,1001.47,61546
2,999.942,61573
2,998.413,61571
2,996.884,61558
2,995.355,61556
2,993.825,61560
2,992.296,61564
2,990.765,61566
2,989.235,61565
2,987.704,61569
2,986.173,61571
2,984.642,61581
2,983.11,61557
2,981.578,61561
2,980.045,61569
2,978.513,61561
2,976.98,61575
2,975.446,61571
2,973.913,61563
2,972.379,61560
2,970.844,61573
2,969.31,61568
2,967.775,61557
2,966.24,61571
2,964.704,61532
2,963.168,61567
2,961.632,61571
2,960.095,61571
2,958.559,61539
2,957.021,61556
2,955.484,61553
2,953.946,61563
2,952.408,61570
2,950.87,61541
2,949.331,61552
2,947.792,61579
2,946.253,61571
2,944.713,61583
2,943.173,61545
2,941.632,61567
2,940.092,61556
2,938.551,61552
2,937.01,61554
2,935.468,61556
2,933.926,61567
2,932.384,61569
2,930.841,61564
2,929.298,61555
2,927.755,61560
2,926.211,61570
2,924.668,61567
2,923.123,61559
2,921.579,61579
2,920.034,61550
2,918.489,61573
2,916.944,61562
2,915.398,61574
2,913.852,61565
2,912.305,61577
2,910.758,61569
2,909.211,61568
2,907.664,61568
2,906.116,61582
2,904.568,61564
2,903.02,61568
2,901.471,61561
2,899.922,61575
2,898.373,61564
2,896.823,61558
2,895.273,61579
2,893.723,61560
2,892.172,61553
2,890.621,61568
2,889.07,61552
2,887.519,61567
2,885.967,61557
2,884.415,61587
2,882.862,61567
2,881.309,61556
2,879.756,61543
2,878.202,61553
2,876.649,61558
2,875.094,61560
2,873.54,61575
2,871.985,61579
2,870.43,61573
2,868.875,61572
2,867.319,61559
2,865.763,61551
2,864.206,61562
2,862.649,61567
2,861.092,61533
2,859.535,61573
2,857.977,61565
2,856.419,61551
2,854.861,61543
2,853.302,61568
2,851.743,61555
2,850.184,61563
2,848.624,61568
2,847.064,61543
2,845.504,61560
2,843.943,61563
2,842.382,61567
2,840.821,61562
2,839.259,61562
2,837.697,61561
2,836.135,61563
2,834.572,61572
2,833.009,61576
2,831.446,61579
2,829.882,61564
2,828.319,61566
2,826.754,61581
2,825.19,61565
2,823.625,61573
2,822.06,61577
2,820.494,61545
2,818.928,61573
2,817.362,61566
2,815.795,61556
2,814.229,61577
2,812.661,61551
2,811.094,61574
2,809.526,61547
2,807.958,61578
2,806.389,61574
2,804.821,61574
2,803.251,61564
2,801.682,61554
2,800.112,61558
2,798.542,61539
2,796.971,61557
2,795.401,61581
2,793.83,61578
2,792.258,61554
2,790.686,61560
2,789.114,61580
2,787.542,61582
2,785.969,61568
2,784.396,61553
2,782.822,61575
2,781.249,61547
2,779.675,61562
2,778.1,61551
2,776.525,61549
2,774.95,61555
2,773.375,61564
2,771.799,61563
2,770.223,61564
2,768.647,61555
2,767.07,61569
2,765.493,61571
2,763.915,61557
2,762.338,61578
2,760.76,61577
2,759.181,61558
2,757.603,61575
2,756.023,61569
2,754.444,61559
2,752.864,61575
2,751.284,61604
2,749.704,61571
2,748.123,61571
2,746.542,61549
2,744.961,61578
2,743.379,61553
2,741.797,61563
2,740.215,61571
2,738.632,61565
2,737.049,61568
2,735.466,61562
2,733.882,61560
2,732.298,61566
2,730.713,61553
2,729.129,61575
2,727.544,61558
2,725.958,61559
2,724.373,61574
2,722.787,61559
2,721.2,61550
2,719.614,61577
2,718.027,61564
2,716.439,61570
2,714.851,61571
2,713.263,61556
2,711.675,61550
2,710.086,61556
2,708.497,61562
2,706.908,61567
2,705.318,61576
2,703.728,61552
2,702.138,61568
2,700.547,61574
2,698.956,61580
2,697.365,61564
2,695.773,61554
2,694.181,61559
2,692.588,61538
2,690.996,61555
2,689.403,61569
2,687.809,61566
2,686.215,61567
2,684.621,61571
2,683.027,61571
2,681.432,61561
2,679.837,61560
2,678.242,61572
2,676.646,61559
2,675.05,61566
2,673.453,61576
2,671.857,61569
2,670.26,61581
2,668.662,61564
2,667.064,61580
2,665.466,61566
2,663.868,61572
2,662.269,61557
2,660.67,61553
2,659.07,61544
2,657.471,61562
2,655.87,61569
2,654.27,61550
2,652.669,61567
2,651.068,61584
2,649.466,61570
2,647.865,61554
2,646.262,61566
2,644.66,61571
2,643.057,61563
2,641.454,61570
2,639.85,61562
2,638.247,61573
2,636.642,61559
2,635.038,61552
2,633.433,61584
2,631.828,61565
2,630.222,61557
2,628.616,61562
2,627.01,61558
2,625.403,61570
2,623.796,61547
2,622.189,61568
2,620.582,61570
2,618.974,61558
2,617.365,61565
2,615.757,61570
2,614.148,61576
2,612.538,61570
2,610.929,61574
2,609.319,61554
2,607.708,61561
2,606.098,61567
2,604.487,61572
2,602.875,61561
2,601.264,61565
2,599.652,61570
2,598.039,61555
2,596.426,61550
2,594.813,61565
2,593.2,61562
2,591.586,61558
2,589.972,61552
2,588.358,61564
2,586.743,61576
2,585.128,61559
2,583.512,61573
2,581.897,61584
2,580.28,61568
2,578.664,61568
2,577.047,61564
2,575.43,61548
2,573.812,61584
2,572.194,61559
2,570.576,61562
2,568.958,61555
2,567.339,61551
2,565.72,61554
2,564.1,61555
2,562.48,61560
2,560.86,61559
2,559.239,61561
2,557.618,61541
2,555.997,61563
2,554.375,61552
2,552.753,61555
2,551.131,61562
2,549.508,61569
2,547.885,61571
2,546.262,61562
2,544.638,61576
2,543.014,61567
2,541.389,61588
2,539.765,61561
2,538.14,61573
2,536.514,61533
2,534.888,61572
2,533.262,61581
2,531.636,61572
2,530.009,61543
2,528.382,61567
2,526.754,61566
2,525.126,61552
2,523.498,61579
2,521.869,61571
2,520.24,61555
2,518.611,61549
2,516.982,61570
2,515.352,61550
2,513.721,61556
2,512.091,61556
2,510.46,61571
2,508.828,61563
2,507.197,61567
2,505.565,61550
2,503.932,61575
2,502.299,61568
2,500.666,61560
2,499.033,61545
2,497.399,61567
2,495.765,61555
2,494.13,61575
2,492.496,61558
2,490.86,61549
2,489.225,61567
2,487.589,61559
2,485.953,61563
2,484.316,61573
2,482.679,61547
2,481.042,61578
2,479.404,61561
2,477.766,61561
2,476.128,61561
2,474.489,61551
2,472.85,61551
2,471.211,61570
2,469.571,61572
2,467.931,61567
2,466.29,61558
2,464.65,61550
2,463.008,61551
2,461.367,61567
2,459.725,61565
2,458.083,61561
2,456.44,61569
2,454.797,61566
2,453.154,61573
2,451.511,61553
2,449.867,61535
2,448.222,61557
2,446.578,61551
2,444.933,61551
2,443.287,61572
2,441.642,61566
2,439.995,61545
2,438.349,61568
2,436.702,61561
2,435.055,61560
2,433.408,61554
2,431.76,61571
2,430.112,61558
2,428.463,61561
2,426.814,61551
2,425.165,61563
2,423.515,61575
2,421.865,61553
2,420.215,61557
2,418.564,61556
2,416.913,61556
2,415.262,61573
2,413.61,61569
2,411.958,61589
2,410.306,61548
2,408.653,61562
2,407,61576
2,405.346,61555
2,403.692,61567
2,402.038,61558
2,400.383,61565
2,398.729,61545
2,397.073,61567
2,395.418,61549
2,393.762,61571
2,392.105,61555
2,390.449,61558
2,388.791,61558
2,387.134,61561
2,385.476,61563
2,383.818,61561
2,382.16,61549
2,380.501,61548
2,378.842,61560
2,377.182,61559
2,375.522,61547
2,373.862,61571
2,372.201,61560
2,370.54,61574
2,368.879,61567
2,367.217,61564
2,365.555,61561
2,363.893,61568
2,362.23,61554
2,360.567,61553
2,358.903,61552
2,357.239,61544
2,355.575,61559
2,353.911,61567
2,352.246,61565
2,350.58,61557
2,348.915,61548
2,347.249,61548
2,345.582,61561
2,343.916,61566
2,342.249,61551
2,340.581,61565
2,338.913,61563
2,337.245,61563
2,335.577,61560
2,333.908,61559
2,332.238,61563
2,330.569,61564
2,328.899,61560
2,327.229,61545
2,325.558,61580
2,323.887,61562
2,322.215,61537
2,320.544,61570
2,318.871,61562
2,317.199,61563
2,315.526,61548
2,313.853,61545
2,312.179,61556
2,310.505,61556
2,308.831,61550
2,307.156,61540
2,305.481,61571
2,303.806,61576
2,302.13,61544
2,300.454,61577
2,298.778,61552
2,297.101,61576
2,295.424,61562
2,293.746,61564
2,292.068,61565
2,290.39,61546
2,288.711,61546
2,287.032,61564
2,285.353,61530
2,283.673,61560
2,281.993,61568
2,280.312,61562
2,278.632,61546
2,276.95,61555
2,275.269,61566
2,273.587,61566
2,271.905,61553
2,270.222,61567
2,268.539,61554
2,266.856,61584
2,265.172,61555
2,263.488,61562
2,261.803,61572
2,260.118,61551
2,258.433,61557
2,256.748,61562
2,255.062,61546
2,253.375,61581
2,251.689,61542
2,250.002,61551
2,248.314,61566
2,246.626,61551
2,244.938,61574
2,243.25,61556
2,241.561,61550
2,239.872,61565
2,238.182,61543
2,236.492,61560
2,234.802,61551
2,233.111,61560
2,231.42,61552
2,229.729,61566
2,228.037,61557
2,226.345,61552
2,224.652,61556
2,222.959,61546
2,221.266,61555
2,219.572,61559
2,217.878,61516
2,216.184,61541
2,214.489,61571
2,212.794,61570
2,211.098,61548
2,209.403,61562
2,207.706,61574
2,206.01,61571
2,204.313,61570
2,202.615,61562
2,200.918,61568
2,199.22,61558
2,197.521,61544
2,195.822,61556
2,194.123,61554
2,192.424,61530
2,190.724,61555
2,189.023,61566
2,187.323,61565
2,185.622,61565
2,183.92,61572
2,182.219,61565
2,180.516,61539
2,178.814,61551
2,177.111,61558
2,175.408,61555
2,173.704,61554
2,172,61548
2,170.296,61544
2,168.591,61561
2,166.886,61555
2,165.18,61552
2,163.474,61579
2,161.768,61573
2,160.062,61542
2,158.355,61556
2,156.647,61553
2,154.94,61532
2,153.231,61544
2,151.523,61550
2,149.814,61545
2,148.105,61584
2,146.395,61562
2,144.685,61546
2,142.975,61544
2,141.264,61560
2,139.553,61548
2,137.842,61561
2,136.13,61553
2,134.418,61554
2,132.705,61549
2,130.992,61561
2,129.279,61566
2,127.565,61555
2,125.851,61547
2,124.137,61563
2,122.422,61556
2,120.707,61582
2,118.991,61565
2,117.275,61559
2,115.559,61554
2,113.842,61547
2,112.125,61557
2,110.407,61551
2,108.69,61553
2,106.971,61551
2,105.253,61559
2,103.534,61566
2,101.815,61553
2,100.095,61562
2,98.3747,61547
2,96.6542,61524
2,94.9334,61570
2,93.2122,61546
2,91.4906,61576
2,89.7686,61543
2,88.0462,61561
2,86.3235,61535
2,84.6004,61559
2,82.8769,61554
2,81.153,61559
2,79.4288,61545
2,77.7041,61551
2,75.9791,61565
2,74.2538,61561
2,72.528,61558
2,70.8019,61552
2,69.0753,61546
2,67.3484,61560
2,65.6212,61544
2,63.8935,61564
2,62.1655,61561
2,60.4371,61566
2,58.7083,61556
2,56.9791,61552
2,55.2495,61529
2,53.5196,61536
2,51.7893,61537
2,50.0586,61543
2,48.3275,61543
2,46.5961,61559
2,44.8642,61546
2,43.132,61565
2,41.3994,61539
2,39.6665,61537
2,37.9331,61569
2,36.1994,61551
2,34.4652,61544
2,32.7307,61540
2,30.9958,61551
2,29.2606,61556
2,27.5249,61545
2,25.7889,61552
2,24.0525,61554
2,22.3157,61551
2,20.5785,61527
2,18.841,61552
2,17.103,61556
2,15.3647,61558
2,13.626,61559
2,11.8869,61549
2,10.1474,61551
2,8.40756,61538
2,6.66732,61535
2,4.92669,61557
2,3.18569,61565
2,1.44429,61558
2,-0.297481,61532
2,-2.03964,61562
2,-3.78218,61557
2,-5.52511,61545
2,-7.26843,61544
2,-9.01212,61536
2,-10.7562,61555
2,-12.5007,61548
2,-14.2455,61553
2,-15.9908,61547
2,-17.7364,61542
2,-19.4824,61563
2,-21.2288,61537
2,-22.9756,61550
2,-24.7227,61561
2,-26.4703,61535
2,-28.2182,61545
2,-29.9665,61550
2,-31.7152,61555
2,-33.4643,61545
2,-35.2138,61565
2,-36.9637,61542
2,-38.7139,61544
2,-40.4646,61537
2,-42.2156,61550
2,-43.967,61543
2,-45.7188,61557
2,-47.471,61546
2,-49.2236,61541
2,-50.9765,61514
2,-52.7299,61548
2,-54.4836,61538
2,-56.2378,61531
2,-57.9923,61528
2,-59.7472,61503
2,-61.5025,61455
2,-63.2582,61490
2,-65.0142,61470
2,-66.7707,61863
