1,725.533,898125
1,725.457,904704
1,725.381,910745
1,725.306,917791
1,725.23,923138
1,725.154,929208
1,725.078,936261
1,725.002,943701
1,724.926,948349
1,724.85,955579
1,724.774,961775
1,724.699,967617
1,724.623,973421
1,724.547,980896
1,724.471,987655
1,724.395,993288
1,724.319,999617
1,724.243,1.00518e+006
1,724.167,1.0122e+006
1,724.092,1.0192e+006
1,724.016,1.02532e+006
1,723.94,1.03186e+006
1,723.864,1.03724e+006
1,723.788,1.04225e+006
1,723.712,1.04981e+006
1,723.636,1.05459e+006
1,723.56,1.06095e+006
1,723.485,1.06849e+006
1,723.409,1.07491e+006
1,723.333,1.07906e+006
1,723.257,1.085e+006
1,723.181,1.09158e+006
1,723.105,1.09704e+006
1,723.029,1.10269e+006
1,722.954,1.10781e+006
1,722.878,1.11616e+006
1,722.802,1.12023e+006
1,722.726,1.12517e+006
1,722.65,1.13008e+006
1,722.574,1.13655e+006
1,722.498,1.14165e+006
1,722.422,1.14564e+006
1,722.347,1.15077e+006
1,722.271,1.15398e+006
1,722.195,1.16044e+006
1,722.119,1.16406e+006
1,722.043,1.16776e+006
1,721.967,1.17211e+006
1,721.891,1.17494e+006
1,721.815,1.17927e+006
1,721.74,1.18221e+006
1,721.664,1.18539e+006
1,721.588,1.18905e+006
1,721.512,1.19171e+006
1,721.436,1.19634e+006
1,721.36,1.19829e+006
1,721.284,1.20293e+006
1,721.209,1.20617e+006
1,721.133,1.20947e+006
1,721.057,1.21359e+006
1,720.981,1.21744e+006
1,720.905,1.22213e+006
1,720.829,1.22471e+006
1,720.753,1.22958e+006
1,720.677,1.23185e+006
1,720.602,1.23562e+006
1,720.526,1.23932e+006
1,720.45,1.24089e+006
1,720.374,1.24635e+006
1,720.298,1.24841e+006
1,720.222,1.25102e+006
1,720.146,1.25466e+006
1,720.07,1.25787e+006
1,719.995,1.26183e+006
1,719.919,1.26433e+006
1,719.843,1.26538e+006
1,719.767,1.26903e+006
1,719.691,1.27285e+006
1,719.615,1.27344e+006
1,719.539,1.2774e+006
1,719.463,1.28003e+006
1,719.388,1.28195e+006
1,719.312,1.28501e+006
1,719.236,1.28758e+006
1,719.16,1.29034e+006
1,719.084,1.29163e+006
1,719.008,1.29484e+006
1,718.932,1.29799e+006
1,718.857,1.29964e+006
1,718.781,1.30297e+006
1,718.705,1.3055e+006
1,718.629,1.30737e+006
1,718.553,1.30881e+006
1,718.477,1.31205e+006
1,718.401,1.31301e+006
1,718.325,1.31396e+006
1,718.25,1.31676e+006
1,718.174,1.31851e+006
1,718.098,1.31933e+006
1,718.022,1.32308e+006
1,717.946,1.32402e+006
1,717.87,1.32535e+006
1,717.794,1.3274e+006
1,717.718,1.3299e+006
1,717.643,1.33044e+006
1,717.567,1.33315e+006
1,717.491,1.33398e+006
1,717.415,1.33622e+006
1,717.339,1.33643e+006
1,717.263,1.3385e+006
1,717.187,1.34005e+006
1,717.111,1.34191e+006
1,717.036,1.34383e+006
1,716.96,1.34515e+006
1,716.884,1.34766e+006
1,716.808,1.34907e+006
1,716.732,1.35019e+006
1,716.656,1.35332e+006
1,716.58,1.35297e+006
1,716.505,1.35657e+006
1,716.429,1.35687e+006
1,716.353,1.35868e+006
1,716.277,1.36028e+006
1,716.201,1.3607e+006
1,716.125,1.36197e+006
1,716.049,1.3642e+006
1,715.973,1.36569e+006
1,715.898,1.36729e+006
1,715.822,1.36896e+006
1,715.746,1.3692e+006
1,715.67,1.37361e+006
1,715.594,1.37362e+006
1,715.518,1.37618e+006
1,715.442,1.37802e+006
1,715.366,1.37731e+006
1,715.291,1.38079e+006
1,715.215,1.38224e+006
1,715.139,1.38445e+006
1,715.063,1.38467e+006
1,714.987,1.38624e+006
1,714.911,1.38793e+006
1,714.835,1.39074e+006
1,714.759,1.39162e+006
1,714.684,1.39329e+006
1,714.608,1.3943e+006
1,714.532,1.39509e+006
1,714.456,1.39812e+006
1,714.38,1.39861e+006
1,714.304,1.39975e+006
1,714.228,1.40215e+006
1,714.153,1.40395e+006
1,714.077,1.40548e+006
1,714.001,1.40695e+006
1,713.925,1.40928e+006
1,713.849,1.41039e+006
1,713.773,1.4114e+006
1,713.697,1.41371e+006
1,713.621,1.41371e+006
1,713.546,1.41407e+006
1,713.47,1.41726e+006
1,713.394,1.41935e+006
1,713.318,1.42094e+006
1,713.242,1.42301e+006
1,713.166,1.42509e+006
1,713.09,1.42596e+006
1,713.014,1.42827e+006
1,712.939,1.42999e+006
1,712.863,1.43183e+006
1,712.787,1.43127e+006
1,712.711,1.43475e+006
1,712.635,1.43386e+006
1,712.559,1.437e+006
1,712.483,1.43815e+006
1,712.407,1.43978e+006
1,712.332,1.44213e+006
1,712.256,1.44157e+006
1,712.18,1.44513e+006
1,712.104,1.44599e+006
1,712.028,1.44606e+006
1,711.952,1.44688e+006
1,711.876,1.44803e+006
1,711.801,1.4513e+006
1,711.725,1.45309e+006
1,711.649,1.45248e+006
1,711.573,1.45466e+006
1,711.497,1.45608e+006
1,711.421,1.45722e+006
1,711.345,1.45852e+006
1,711.269,1.45903e+006
1,711.194,1.46381e+006
1,711.118,1.46512e+006
1,711.042,1.46599e+006
1,710.966,1.46773e+006
1,710.89,1.46764e+006
1,710.814,1.46972e+006
1,710.738,1.47135e+006
1,710.662,1.47386e+006
1,710.587,1.47424e+006
1,710.511,1.47489e+006
1,710.435,1.47645e+006
1,710.359,1.47697e+006
1,710.283,1.47976e+006
1,710.207,1.48076e+006
1,710.131,1.48134e+006
1,710.055,1.48478e+006
1,709.98,1.48568e+006
1,709.904,1.48515e+006
1,709.828,1.48734e+006
1,709.752,1.48898e+006
1,709.676,1.48906e+006
1,709.6,1.49159e+006
1,709.524,1.49311e+006
1,709.449,1.49254e+006
1,709.373,1.49551e+006
1,709.297,1.49774e+006
1,709.221,1.49867e+006
1,709.145,1.49972e+006
1,709.069,1.50178e+006
1,708.993,1.50241e+006
1,708.917,1.50357e+006
1,708.842,1.50555e+006
1,708.766,1.50544e+006
1,708.69,1.50862e+006
1,708.614,1.50702e+006
1,708.538,1.50912e+006
1,708.462,1.51e+006
1,708.386,1.51132e+006
1,708.31,1.51315e+006
1,708.235,1.51367e+006
1,708.159,1.51495e+006
1,708.083,1.51634e+006
1,708.007,1.51813e+006
1,707.931,1.51867e+006
1,707.855,1.52002e+006
1,707.779,1.52083e+006
1,707.704,1.5218e+006
1,707.628,1.52348e+006
1,707.552,1.52515e+006
1,707.476,1.5256e+006
1,707.4,1.52773e+006
1,707.324,1.53024e+006
1,707.248,1.52911e+006
1,707.172,1.53226e+006
1,707.097,1.53398e+006
1,707.021,1.53524e+006
1,706.945,1.53727e+006
1,706.869,1.53574e+006
1,706.793,1.53727e+006
1,706.717,1.53948e+006
1,706.641,1.54018e+006
1,706.565,1.54178e+006
1,706.49,1.5416e+006
1,706.414,1.54486e+006
1,706.338,1.54431e+006
1,706.262,1.54529e+006
1,706.186,1.54634e+006
1,706.11,1.54845e+006
1,706.034,1.54738e+006
1,705.958,1.54882e+006
1,705.883,1.54966e+006
1,705.807,1.55105e+006
1,705.731,1.55251e+006
1,705.655,1.55498e+006
1,705.579,1.55482e+006
1,705.503,1.55685e+006
1,705.427,1.55858e+006
1,705.352,1.56087e+006
1,705.276,1.55883e+006
1,705.2,1.56041e+006
1,705.124,1.56267e+006
1,705.048,1.56323e+006
1,704.972,1.56427e+006
1,704.896,1.5661e+006
1,704.82,1.5676e+006
1,704.745,1.56684e+006
1,704.669,1.56895e+006
1,704.593,1.56908e+006
1,704.517,1.57123e+006
1,704.441,1.57051e+006
1,704.365,1.5722e+006
1,704.289,1.57363e+006
1,704.213,1.57234e+006
1,704.138,1.57411e+006
1,704.062,1.57504e+006
1,703.986,1.5776e+006
1,703.91,1.57679e+006
1,703.834,1.57878e+006
1,703.758,1.58015e+006
1,703.682,1.57904e+006
1,703.606,1.57857e+006
1,703.531,1.5813e+006
1,703.455,1.5829e+006
1,703.379,1.58521e+006
1,703.303,1.58446e+006
1,703.227,1.58615e+006
1,703.151,1.58609e+006
1,703.075,1.58672e+006
1,703,1.58817e+006
1,702.924,1.58892e+006
1,702.848,1.58974e+006
1,702.772,1.59022e+006
1,702.696,1.59051e+006
1,702.62,1.59352e+006
1,702.544,1.59364e+006
1,702.468,1.59358e+006
1,702.393,1.59622e+006
1,702.317,1.59579e+006
1,702.241,1.59754e+006
1,702.165,1.59797e+006
1,702.089,1.59722e+006
1,702.013,1.59794e+006
1,701.937,1.59805e+006
1,701.861,1.59968e+006
1,701.786,1.60078e+006
1,701.71,1.60104e+006
1,701.634,1.60134e+006
1,701.558,1.60431e+006
1,701.482,1.60479e+006
1,701.406,1.6075e+006
1,701.33,1.60634e+006
1,701.254,1.6079e+006
1,701.179,1.60814e+006
1,701.103,1.60858e+006
1,701.027,1.61031e+006
1,700.951,1.61055e+006
1,700.875,1.611e+006
1,700.799,1.61191e+006
1,700.723,1.61228e+006
1,700.648,1.61411e+006
1,700.572,1.61457e+006
1,700.496,1.61452e+006
1,700.42,1.61516e+006
1,700.344,1.61662e+006
1,700.268,1.61667e+006
1,700.192,1.61678e+006
1,700.116,1.61789e+006
1,700.041,1.61952e+006
1,699.965,1.61965e+006
1,699.889,1.61879e+006
1,699.813,1.6191e+006
1,699.737,1.62006e+006
1,699.661,1.62195e+006
1,699.585,1.62223e+006
1,699.509,1.62435e+006
1,699.434,1.62422e+006
1,699.358,1.62581e+006
1,699.282,1.62693e+006
1,699.206,1.62613e+006
1,699.13,1.62708e+006
1,699.054,1.62727e+006
1,698.978,1.62989e+006
1,698.902,1.62654e+006
1,698.827,1.62883e+006
1,698.751,1.62999e+006
1,698.675,1.63129e+006
1,698.599,1.62983e+006
1,698.523,1.63053e+006
1,698.447,1.63104e+006
1,698.371,1.63097e+006
1,698.296,1.63279e+006
1,698.22,1.63267e+006
1,698.144,1.63487e+006
1,698.068,1.63331e+006
1,697.992,1.6331e+006
1,697.916,1.63421e+006
1,697.84,1.63483e+006
1,697.764,1.63735e+006
1,697.689,1.63749e+006
1,697.613,1.63927e+006
1,697.537,1.63996e+006
1,697.461,1.63905e+006
1,697.385,1.64067e+006
1,697.309,1.6413e+006
1,697.233,1.64044e+006
1,697.157,1.64046e+006
1,697.082,1.64054e+006
1,697.006,1.64158e+006
1,696.93,1.6427e+006
1,696.854,1.64394e+006
1,696.778,1.64475e+006
1,696.702,1.64427e+006
1,696.626,1.64565e+006
1,696.55,1.6466e+006
1,696.475,1.64642e+006
1,696.399,1.64934e+006
1,696.323,1.6493e+006
1,696.247,1.64943e+006
1,696.171,1.64881e+006
1,696.095,1.64954e+006
1,696.019,1.64906e+006
1,695.944,1.6486e+006
1,695.868,1.64763e+006
1,695.792,1.64592e+006
1,695.716,1.64788e+006
1,695.64,1.64788e+006
1,695.564,1.6451e+006
1,695.488,1.64654e+006
1,695.412,1.6469e+006
1,695.337,1.64631e+006
1,695.261,1.6458e+006
1,695.185,1.64706e+006
1,695.109,1.64794e+006
1,695.033,1.64911e+006
1,694.957,1.64798e+006
1,694.881,1.64656e+006
1,694.805,1.64647e+006
1,694.73,1.64701e+006
1,694.654,1.64729e+006
1,694.578,1.64736e+006
1,694.502,1.6483e+006
1,694.426,1.6486e+006
1,694.35,1.64793e+006
1,694.274,1.64854e+006
1,694.199,1.64835e+006
1,694.123,1.64784e+006
1,694.047,1.64766e+006
1,693.971,1.64779e+006
1,693.895,1.64808e+006
1,693.819,1.65028e+006
1,693.743,1.6513e+006
1,693.667,1.64939e+006
1,693.592,1.64918e+006
1,693.516,1.6521e+006
1,693.44,1.65125e+006
1,693.364,1.65132e+006
1,693.288,1.65167e+006
1,693.212,1.6498e+006
1,693.136,1.65065e+006
1,693.06,1.65096e+006
1,692.985,1.65035e+006
1,692.909,1.65087e+006
1,692.833,1.65172e+006
1,692.757,1.65137e+006
1,692.681,1.65052e+006
1,692.605,1.65245e+006
1,692.529,1.65115e+006
1,692.453,1.65074e+006
1,692.378,1.6507e+006
1,692.302,1.6508e+006
1,692.226,1.65184e+006
1,692.15,1.6502e+006
1,692.074,1.64942e+006
1,691.998,1.65066e+006
1,691.922,1.64707e+006
1,691.847,1.65042e+006
1,691.771,1.65081e+006
1,691.695,1.65005e+006
1,691.619,1.64835e+006
1,691.543,1.64901e+006
1,691.467,1.65065e+006
1,691.391,1.6504e+006
1,691.315,1.64767e+006
1,691.24,1.6497e+006
1,691.164,1.64792e+006
1,691.088,1.6474e+006
1,691.012,1.64815e+006
1,690.936,1.64807e+006
1,690.86,1.64744e+006
1,690.784,1.64789e+006
1,690.708,1.64762e+006
1,690.633,1.64723e+006
1,690.557,1.64466e+006
1,690.481,1.64677e+006
1,690.405,1.64446e+006
1,690.329,1.64502e+006
1,690.253,1.64504e+006
1,690.177,1.64299e+006
1,690.101,1.64317e+006
1,690.026,1.64428e+006
1,689.95,1.64544e+006
1,689.874,1.64506e+006
1,689.798,1.64397e+006
1,689.722,1.6438e+006
1,689.646,1.64147e+006
1,689.57,1.64297e+006
1,689.495,1.6424e+006
1,689.419,1.64256e+006
1,689.343,1.64231e+006
1,689.267,1.64047e+006
1,689.191,1.64066e+006
1,689.115,1.63883e+006
1,689.039,1.6405e+006
1,688.963,1.63783e+006
1,688.888,1.64055e+006
1,688.812,1.63752e+006
1,688.736,1.63805e+006
1,688.66,1.63768e+006
1,688.584,1.63543e+006
1,688.508,1.63571e+006
1,688.432,1.63419e+006
1,688.356,1.63522e+006
1,688.281,1.63465e+006
1,688.205,1.63266e+006
1,688.129,1.63259e+006
1,688.053,1.63276e+006
1,687.977,1.63331e+006
1,687.901,1.63322e+006
1,687.825,1.63366e+006
1,687.749,1.6328e+006
1,687.674,1.63124e+006
1,687.598,1.63151e+006
1,687.522,1.63117e+006
1,687.446,1.62941e+006
1,687.37,1.62982e+006
1,687.294,1.62897e+006
1,687.218,1.62754e+006
1,687.143,1.62777e+006
1,687.067,1.62641e+006
1,686.991,1.62619e+006
1,686.915,1.62512e+006
1,686.839,1.62401e+006
1,686.763,1.62289e+006
1,686.687,1.6237e+006
1,686.611,1.62095e+006
1,686.536,1.62022e+006
1,686.46,1.61902e+006
1,686.384,1.61758e+006
1,686.308,1.61971e+006
1,686.232,1.61658e+006
1,686.156,1.61737e+006
1,686.08,1.61697e+006
1,686.004,1.6167e+006
1,685.929,1.61649e+006
1,685.853,1.61433e+006
1,685.777,1.61473e+006
1,685.701,1.61398e+006
1,685.625,1.61246e+006
1,685.549,1.6114e+006
1,685.473,1.61008e+006
1,685.397,1.61021e+006
1,685.322,1.60863e+006
1,685.246,1.60742e+006
1,685.17,1.60585e+006
1,685.094,1.60602e+006
1,685.018,1.60513e+006
1,684.942,1.60304e+006
1,684.866,1.60387e+006
1,684.791,1.60082e+006
1,684.715,1.60124e+006
1,684.639,1.60236e+006
1,684.563,1.60067e+006
1,684.487,1.59714e+006
1,684.411,1.59704e+006
1,684.335,1.5975e+006
1,684.259,1.5949e+006
1,684.184,1.59553e+006
1,684.108,1.59422e+006
1,684.032,1.5948e+006
1,683.956,1.59456e+006
1,683.88,1.59495e+006
1,683.804,1.59268e+006
1,683.728,1.59236e+006
1,683.652,1.59163e+006
1,683.577,1.59022e+006
1,683.501,1.59025e+006
1,683.425,1.58787e+006
1,683.349,1.58753e+006
1,683.273,1.58586e+006
1,683.197,1.58501e+006
1,683.121,1.58323e+006
1,683.045,1.58387e+006
1,682.97,1.5828e+006
1,682.894,1.5816e+006
1,682.818,1.58051e+006
1,682.742,1.57942e+006
1,682.666,1.57931e+006
1,682.59,1.57504e+006
1,682.514,1.57572e+006
1,682.439,1.57443e+006
1,682.363,1.57242e+006
1,682.287,1.57136e+006
1,682.211,1.57026e+006
1,682.135,1.57188e+006
1,682.059,1.57136e+006
1,681.983,1.57039e+006
1,681.907,1.57029e+006
1,681.832,1.5676e+006
1,681.756,1.56719e+006
1,681.68,1.56685e+006
1,681.604,1.56605e+006
1,681.528,1.5631e+006
1,681.452,1.56309e+006
1,681.376,1.56252e+006
1,681.3,1.55943e+006
1,681.225,1.55857e+006
1,681.149,1.55714e+006
1,681.073,1.55823e+006
1,680.997,1.55537e+006
1,680.921,1.55515e+006
1,680.845,1.55355e+006
1,680.769,1.55442e+006
1,680.694,1.55274e+006
1,680.618,1.5499e+006
1,680.542,1.55049e+006
1,680.466,1.55011e+006
1,680.39,1.54934e+006
1,680.314,1.54784e+006
1,680.238,1.54747e+006
1,680.162,1.54743e+006
1,680.087,1.54662e+006
1,680.011,1.54482e+006
1,679.935,1.5427e+006
1,679.859,1.5413e+006
1,679.783,1.54138e+006
1,679.707,1.53918e+006
1,679.631,1.53828e+006
1,679.555,1.53935e+006
1,679.48,1.53618e+006
1,679.404,1.53586e+006
1,679.328,1.53234e+006
1,679.252,1.53097e+006
1,679.176,1.53088e+006
1,679.1,1.52959e+006
1,679.024,1.52631e+006
1,678.948,1.52762e+006
1,678.873,1.5255e+006
1,678.797,1.52515e+006
1,678.721,1.52496e+006
1,678.645,1.52217e+006
1,678.569,1.52073e+006
1,678.493,1.52062e+006
1,678.417,1.51975e+006
1,678.342,1.51918e+006
1,678.266,1.51871e+006
1,678.19,1.51978e+006
1,678.114,1.51825e+006
1,678.038,1.51801e+006
1,677.962,1.51531e+006
1,677.886,1.51264e+006
1,677.81,1.51185e+006
1,677.735,1.51188e+006
1,677.659,1.50967e+006
1,677.583,1.50914e+006
1,677.507,1.50837e+006
1,677.431,1.50479e+006
1,677.355,1.50343e+006
1,677.279,1.50312e+006
1,677.203,1.50069e+006
1,677.128,1.49928e+006
1,677.052,1.49846e+006
1,676.976,1.49673e+006
1,676.9,1.49513e+006
1,676.824,1.49323e+006
1,676.748,1.49173e+006
1,676.672,1.48986e+006
1,676.596,1.48977e+006
1,676.521,1.48784e+006
1,676.445,1.4858e+006
1,676.369,1.4859e+006
1,676.293,1.48479e+006
1,676.217,1.48311e+006
1,676.141,1.4812e+006
1,676.065,1.47922e+006
1,675.99,1.4773e+006
1,675.914,1.47608e+006
1,675.838,1.47444e+006
1,675.762,1.46905e+006
1,675.686,1.46961e+006
1,675.61,1.46748e+006
1,675.534,1.46677e+006
1,675.458,1.46388e+006
1,675.383,1.46208e+006
1,675.307,1.46091e+006
1,675.231,1.45842e+006
1,675.155,1.45603e+006
1,675.079,1.45472e+006
1,675.003,1.45294e+006
1,674.927,1.45064e+006
1,674.851,1.44844e+006
1,674.776,1.44667e+006
1,674.7,1.44614e+006
1,674.624,1.44402e+006
1,674.548,1.44218e+006
1,674.472,1.44178e+006
1,674.396,1.43914e+006
1,674.32,1.4384e+006
1,674.244,1.43778e+006
1,674.169,1.43442e+006
1,674.093,1.43475e+006
1,674.017,1.4332e+006
1,673.941,1.42945e+006
1,673.865,1.42772e+006
1,673.789,1.42701e+006
1,673.713,1.42564e+006
1,673.638,1.42327e+006
1,673.562,1.42121e+006
1,673.486,1.42093e+006
1,673.41,1.41761e+006
1,673.334,1.41707e+006
1,673.258,1.41608e+006
1,673.182,1.41533e+006
1,673.106,1.41084e+006
1,673.031,1.41082e+006
1,672.955,1.40767e+006
1,672.879,1.40654e+006
1,672.803,1.4048e+006
1,672.727,1.40144e+006
1,672.651,1.40059e+006
1,672.575,1.39742e+006
1,672.499,1.39709e+006
1,672.424,1.39627e+006
1,672.348,1.39528e+006
1,672.272,1.39256e+006
1,672.196,1.39177e+006
1,672.12,1.39074e+006
1,672.044,1.38744e+006
1,671.968,1.38531e+006
1,671.892,1.38369e+006
1,671.817,1.38331e+006
1,671.741,1.38018e+006
1,671.665,1.37832e+006
1,671.589,1.37805e+006
1,671.513,1.37609e+006
1,671.437,1.37356e+006
1,671.361,1.37093e+006
1,671.286,1.37041e+006
1,671.21,1.36915e+006
1,671.134,1.36758e+006
1,671.058,1.36581e+006
1,670.982,1.364e+006
1,670.906,1.36104e+006
1,670.83,1.35909e+006
1,670.754,1.3581e+006
1,670.679,1.35581e+006
1,670.603,1.35544e+006
1,670.527,1.35296e+006
1,670.451,1.35237e+006
1,670.375,1.34963e+006
1,670.299,1.3492e+006
1,670.223,1.34676e+006
1,670.147,1.34409e+006
1,670.072,1.34445e+006
1,669.996,1.34051e+006
1,669.92,1.33792e+006
1,669.844,1.33791e+006
1,669.768,1.33635e+006
1,669.692,1.33552e+006
1,669.616,1.33279e+006
1,669.54,1.3321e+006
1,669.465,1.32995e+006
1,669.389,1.32869e+006
1,669.313,1.32681e+006
1,669.237,1.32551e+006
1,669.161,1.3256e+006
1,669.085,1.32552e+006
1,669.009,1.32635e+006
1,668.934,1.32585e+006
1,668.858,1.32451e+006
1,668.782,1.32172e+006
1,668.706,1.32082e+006
1,668.63,1.32078e+006
1,668.554,1.31805e+006
1,668.478,1.31574e+006
1,668.402,1.31273e+006
1,668.327,1.31073e+006
1,668.251,1.3055e+006
1,668.175,1.30271e+006
1,668.099,1.30018e+006
1,668.023,1.29614e+006
1,667.947,1.29396e+006
1,667.871,1.29257e+006
1,667.795,1.29066e+006
1,667.72,1.2896e+006
1,667.644,1.28661e+006
1,667.568,1.28391e+006
1,667.492,1.28238e+006
1,667.416,1.28099e+006
1,667.34,1.27957e+006
1,667.264,1.27826e+006
1,667.189,1.27456e+006
1,667.113,1.27344e+006
1,667.037,1.27064e+006
1,666.961,1.26846e+006
1,666.885,1.26633e+006
1,666.809,1.26437e+006
1,666.733,1.26361e+006
1,666.657,1.26058e+006
1,666.582,1.26014e+006
1,666.506,1.25827e+006
1,666.43,1.25579e+006
1,666.354,1.2545e+006
1,666.278,1.25173e+006
1,666.202,1.24832e+006
1,666.126,1.24656e+006
1,666.05,1.24391e+006
1,665.975,1.24153e+006
1,665.899,1.24067e+006
1,665.823,1.23985e+006
1,665.747,1.23593e+006
1,665.671,1.23358e+006
1,665.595,1.23121e+006
1,665.519,1.23101e+006
1,665.443,1.22883e+006
1,665.368,1.22596e+006
1,665.292,1.22458e+006
1,665.216,1.22273e+006
1,665.14,1.22008e+006
1,665.064,1.21683e+006
1,664.988,1.21607e+006
1,664.912,1.21452e+006
1,664.837,1.21263e+006
1,664.761,1.21012e+006
1,664.685,1.20815e+006
1,664.609,1.20688e+006
1,664.533,1.20541e+006
1,664.457,1.20319e+006
1,664.381,1.20193e+006
1,664.305,1.19977e+006
1,664.23,1.19863e+006
1,664.154,1.19591e+006
1,664.078,1.1939e+006
1,664.002,1.19277e+006
1,663.926,1.19171e+006
1,663.85,1.18758e+006
1,663.774,1.18508e+006
1,663.698,1.18337e+006
1,663.623,1.18176e+006
1,663.547,1.18023e+006
1,663.471,1.17695e+006
1,663.395,1.17631e+006
1,663.319,1.17385e+006
1,663.243,1.17398e+006
1,663.167,1.17037e+006
1,663.091,1.16748e+006
1,663.016,1.1659e+006
1,662.94,1.16425e+006
1,662.864,1.16248e+006
1,662.788,1.16087e+006
1,662.712,1.15829e+006
1,662.636,1.15684e+006
1,662.56,1.15565e+006
1,662.485,1.15379e+006
1,662.409,1.15143e+006
1,662.333,1.1496e+006
1,662.257,1.14662e+006
1,662.181,1.14479e+006
1,662.105,1.142e+006
1,662.029,1.13998e+006
1,661.953,1.13843e+006
1,661.878,1.13564e+006
1,661.802,1.13361e+006
1,661.726,1.13084e+006
1,661.65,1.12873e+006
1,661.574,1.12717e+006
1,661.498,1.12462e+006
1,661.422,1.12346e+006
1,661.346,1.12119e+006
1,661.271,1.11764e+006
1,661.195,1.11744e+006
1,661.119,1.11438e+006
1,661.043,1.1118e+006
1,660.967,1.10915e+006
1,660.891,1.10751e+006
1,660.815,1.10459e+006
1,660.739,1.10363e+006
1,660.664,1.10264e+006
1,660.588,1.10094e+006
1,660.512,1.09815e+006
1,660.436,1.09703e+006
1,660.36,1.09429e+006
1,660.284,1.09163e+006
1,660.208,1.08924e+006
1,660.133,1.08787e+006
1,660.057,1.08599e+006
1,659.981,1.08465e+006
1,659.905,1.08288e+006
1,659.829,1.08008e+006
1,659.753,1.07742e+006
1,659.677,1.07658e+006
1,659.601,1.07309e+006
1,659.526,1.0713e+006
1,659.45,1.06838e+006
1,659.374,1.06712e+006
1,659.298,1.06427e+006
1,659.222,1.06262e+006
1,659.146,1.06001e+006
1,659.07,1.058e+006
1,658.994,1.05563e+006
1,658.919,1.05508e+006
1,658.843,1.05302e+006
1,658.767,1.05078e+006
1,658.691,1.04841e+006
1,658.615,1.04774e+006
1,658.539,1.04556e+006
1,658.463,1.04293e+006
1,658.387,1.04078e+006
1,658.312,1.03853e+006
1,658.236,1.03654e+006
1,658.16,1.0346e+006
1,658.084,1.03301e+006
1,658.008,1.02931e+006
1,657.932,1.0284e+006
1,657.856,1.02645e+006
1,657.781,1.02445e+006
1,657.705,1.02223e+006
1,657.629,1.01964e+006
1,657.553,1.01854e+006
1,657.477,1.01518e+006
1,657.401,1.01241e+006
1,657.325,1.01116e+006
1,657.249,1.00862e+006
1,657.174,1.00602e+006
1,657.098,1.00477e+006
1,657.022,1.00166e+006
1,656.946,999224
1,656.87,998757
1,656.794,996770
1,656.718,994149
1,656.642,989713
1,656.567,988688
1,656.491,986906
1,656.415,984319
1,656.339,981550
1,656.263,980130
1,656.187,977904
1,656.111,976053
1,656.035,974404
1,655.96,972313
1,655.884,970385
1,655.808,967640
1,655.732,965119
1,655.656,962821
1,655.58,961561
1,655.504,958842
1,655.429,957845
1,655.353,955808
1,655.277,954586
1,655.201,950994
1,655.125,950596
1,655.049,947734
1,654.973,944771
1,654.897,944074
1,654.822,942413
1,654.746,938800
1,654.67,937605
1,654.594,935358
1,654.518,934915
1,654.442,931801
1,654.366,928330
1,654.29,926901
1,654.215,924764
1,654.139,921888
1,654.063,919286
1,653.987,919062
1,653.911,915505
1,653.835,913912
1,653.759,911326
1,653.684,908969
1,653.608,907456
1,653.532,905206
1,653.456,901505
1,653.38,899335
1,653.304,897774
1,653.228,896002
1,653.152,894223
1,653.077,891758
1,653.001,889509
1,652.925,886911
1,652.849,884779
1,652.773,882975
1,652.697,880560
1,652.621,879715
1,652.545,875953
1,652.47,873235
1,652.394,871634
1,652.318,868903
1,652.242,867902
1,652.166,864628
1,652.09,863636
1,652.014,860927
1,651.938,858537
1,651.863,856231
1,651.787,854640
1,651.711,851883
1,651.635,850132
1,651.559,847057
1,651.483,844804
1,651.407,841672
1,651.332,841200
1,651.256,837892
1,651.18,836082
1,651.104,833802
1,651.028,832679
1,650.952,830024
1,650.876,828289
1,650.8,826030
1,650.725,823042
1,650.649,820207
1,650.573,819878
1,650.497,815531
1,650.421,814571
1,650.345,811886
1,650.269,810266
1,650.193,808237
1,650.118,805197
1,650.042,803133
1,649.966,800380
1,649.89,797126
1,649.814,795609
1,649.738,792744
1,649.662,789922
1,649.586,787017
1,649.511,784309
1,649.435,782175
1,649.359,778865
1,649.283,776973
1,649.207,774173
1,649.131,772196
1,649.055,769383
1,648.98,766778
1,648.904,763906
1,648.828,762513
1,648.752,758891
1,648.676,756922
1,648.6,753454
1,648.524,750707
1,648.448,746893
1,648.373,744100
1,648.297,741173
1,648.221,738104
1,648.145,734557
1,648.069,732832
1,647.993,729779
1,647.917,726974
1,647.841,723998
1,647.766,720122
1,647.69,715899
1,647.614,713063
1,647.538,709928
1,647.462,704675
1,647.386,702512
1,647.31,697910
1,647.234,695200
1,647.159,693156
1,647.083,689385
1,647.007,685171
1,646.931,680451
1,646.855,675655
1,646.779,669993
1,646.703,665947
1,646.628,662354
1,646.552,658347
1,646.476,653775
1,646.4,649365
1,646.324,645785
1,646.248,640951
1,646.172,634580
1,646.096,629724
1,646.021,624715
1,645.945,618941
1,645.869,613121
1,645.793,608521
1,645.717,603468
1,645.641,598598
1,645.565,594539
1,645.489,588255
1,645.414,581587
1,645.338,575961
1,645.262,571102
1,645.186,565055
1,645.11,559409
1,645.034,553193
1,644.958,547739
1,644.882,541980
1,644.807,536731
1,644.731,530080
1,644.655,524159
1,644.579,518502
1,644.503,513518
1,644.427,509329
1,644.351,504153
1,644.276,498749
1,644.2,494371
1,644.124,490772
1,644.048,485624
1,643.972,479474
1,643.896,473871
1,643.82,467637
1,643.744,462021
1,643.669,454621
1,643.593,447378
1,643.517,443157
1,643.441,436885
1,643.365,425582
1,643.289,414347
1,643.213,403200
1,643.137,392159
1,643.062,379859
1,642.986,371292
1,642.91,362782
1,642.834,352470
1,642.758,341862
1,642.682,332042
1,642.606,321355
1,642.53,308545
1,642.455,297377
1,642.379,289501
1,642.303,282285
1,642.227,273623
1,642.151,264477
1,642.075,254760
1,641.999,243629
1,641.924,231295
1,641.848,221864
1,641.772,213894
1,641.696,206833
1,641.62,200081
1,641.544,192213
1,641.468,184277
1,641.392,176527
1,641.317,169647
1,641.241,162950
1,641.165,158288
1,641.089,154380
1,641.013,151166
1,640.937,148641
1,640.861,147472
1,640.785,146166
1,640.71,145451
1,640.634,144968
1,640.558,146681
1,640.482,148691
1,640.406,149680
1,640.33,150708
1,640.254,153201
1,640.179,155837
1,640.103,157930
1,640.027,159709
1,639.951,161802
1,639.875,163165
1,639.799,167158
1,639.723,174139
1,639.647,176304
1,639.572,173907
1,639.496,170162
1,639.42,165162
1,639.344,152940
1,639.268,142541
1,639.192,137956
1,639.116,136099
1,639.04,133785
1,638.965,131260
1,638.889,128985
1,638.813,127883
1,638.737,127186
1,638.661,127000
1,638.585,126863
1,638.509,126695
1,638.433,126620
1,638.358,126483
1,638.282,126483
1,638.206,126342
1,638.13,126160
1,638.054,126506
1,637.978,126422
1,637.902,126500
1,637.827,127217
1,637.751,127435
1,637.675,127843
1,637.599,128587
1,637.523,129177
1,637.447,130073
1,637.371,130782
1,637.295,132164
1,637.22,134119
1,637.144,136352
1,637.068,138888
1,636.992,141026
1,636.916,143341
1,636.84,144916
1,636.764,145406
1,636.688,144761
1,636.613,143948
1,636.537,142909
1,636.461,142550
1,636.385,142180
1,636.309,142725
1,636.233,143890
1,636.157,145319
1,636.081,146371
1,636.006,148426
1,635.93,151619
1,635.854,158533
1,635.778,168158
1,635.702,176962
1,635.626,182846
1,635.55,188297
1,635.475,191716
1,635.399,195027
1,635.323,196970
1,635.247,200096
1,635.171,207149
1,635.095,221316
1,635.019,244009
1,634.943,256882
1,634.868,267240
1,634.792,287958
1,634.716,329251
1,634.64,398563
1,634.564,465387
1,634.488,574170
1,634.412,890128
1,634.336,1.26521e+006
1,634.261,1.62864e+006
1,634.185,2.09606e+006
1,634.109,3.25065e+006
1,634.033,4.40871e+006
1,633.957,5.56677e+006
1,633.881,6.54058e+006
1,633.805,6.26412e+006
1,633.729,5.68387e+006
1,633.654,4.95409e+006
1,633.578,4.15084e+006
1,633.502,3.47e+006
1,633.426,2.83338e+006
1,633.35,2.10717e+006
1,633.274,1.33532e+006
1,633.198,1.04124e+006
1,633.123,930454
1,633.047,709521
1,632.971,489750
1,632.895,428711
1,632.819,409617
1,632.743,361400
1,632.667,327601
1,632.591,316601
1,632.516,310671
1,632.44,296420
1,632.364,291111
1,632.288,288374
1,632.212,286406
1,632.136,282758
1,632.06,282992
1,631.984,283990
1,631.909,283717
1,631.833,283503
1,631.757,286057
1,631.681,288339
1,631.605,289864
1,631.529,290017
1,631.453,291252
1,631.377,290843
1,631.302,290830
1,631.226,290289
1,631.15,289708
1,631.074,288431
1,630.998,286849
1,630.922,285069
1,630.846,284291
1,630.771,283364
1,630.695,281761
1,630.619,279729
1,630.543,278630
1,630.467,276820
1,630.391,275223
1,630.315,273088
1,630.239,272037
1,630.164,270372
1,630.088,268767
1,630.012,267440
1,629.936,265393
1,629.86,263649
1,629.784,262363
1,629.708,261541
1,629.632,260178
1,629.557,258608
1,629.481,257208
1,629.405,256101
1,629.329,254238
1,629.253,253076
1,629.177,251345
1,629.101,249968
1,629.025,248700
1,628.95,247799
1,628.874,246297
1,628.798,245512
1,628.722,243576
1,628.646,242034
1,628.57,240981
1,628.494,240163
1,628.419,238676
1,628.343,237401
1,628.267,236090
1,628.191,234875
1,628.115,233720
1,628.039,232165
1,627.963,231505
1,627.887,230180
1,627.812,229809
1,627.736,228562
1,627.66,227432
1,627.584,226369
1,627.508,224922
1,627.432,224484
1,627.356,222969
1,627.28,221801
1,627.205,220497
1,627.129,218870
1,627.053,218216
1,626.977,217122
1,626.901,216103
1,626.825,215257
1,626.749,214828
1,626.674,213859
1,626.598,213127
1,626.522,212170
1,626.446,211341
1,626.37,209770
1,626.294,209597
1,626.218,208964
1,626.142,207744
1,626.067,206921
1,625.991,206081
1,625.915,204857
1,625.839,205003
1,625.763,204260
1,625.687,203545
1,625.611,202098
1,625.535,201363
1,625.46,199906
1,625.384,198569
1,625.308,197803
1,625.232,196755
1,625.156,195572
1,625.08,194491
1,625.004,193726
1,624.928,192721
1,624.853,192215
1,624.777,190872
1,624.701,189219
1,624.625,187706
1,624.549,186519
1,624.473,185672
1,624.397,184418
1,624.322,183846
1,624.246,182757
1,624.17,181438
1,624.094,179958
1,624.018,178548
1,623.942,177685
