1,725.533,101048
1,725.457,101005
1,725.381,101042
1,725.306,101314
1,725.23,101594
1,725.154,101862
1,725.078,102031
1,725.002,102432
1,724.926,102411
1,724.85,102740
1,724.774,102950
1,724.699,103260
1,724.623,103528
1,724.547,103441
1,724.471,103827
1,724.395,103738
1,724.319,104222
1,724.243,104425
1,724.167,104492
1,724.092,104679
1,724.016,104864
1,723.94,105158
1,723.864,105108
1,723.788,105671
1,723.712,105657
1,723.636,105758
1,723.56,105994
1,723.485,106159
1,723.409,106237
1,723.333,106560
1,723.257,106546
1,723.181,106419
1,723.105,106864
1,723.029,106925
1,722.954,107313
1,722.878,107281
1,722.802,107496
1,722.726,107648
1,722.65,107663
1,722.574,107860
1,722.498,107869
1,722.422,108112
1,722.347,108173
1,722.271,108329
1,722.195,108300
1,722.119,108408
1,722.043,108512
1,721.967,108682
1,721.891,108852
1,721.815,108774
1,721.74,108964
1,721.664,109027
1,721.588,109158
1,721.512,109118
1,721.436,109347
1,721.36,109358
1,721.284,109690
1,721.209,109444
1,721.133,109709
1,721.057,109601
1,720.981,109650
1,720.905,109915
1,720.829,109927
1,720.753,110262
1,720.677,110096
1,720.602,110279
1,720.526,110496
1,720.45,110632
1,720.374,110504
1,720.298,110708
1,720.222,110860
1,720.146,110907
1,720.07,111062
1,719.995,110973
1,719.919,111304
1,719.843,111107
1,719.767,111114
1,719.691,111242
1,719.615,111344
1,719.539,111311
1,719.463,111483
1,719.388,111494
1,719.312,111493
1,719.236,111634
1,719.16,111794
1,719.084,111933
1,719.008,111991
1,718.932,111866
1,718.857,111894
1,718.781,112309
1,718.705,112212
1,718.629,112250
1,718.553,112120
1,718.477,112343
1,718.401,112161
1,718.325,112266
1,718.25,112339
1,718.174,112391
1,718.098,112502
1,718.022,112447
1,717.946,112475
1,717.87,112587
1,717.794,112483
1,717.718,112624
1,717.643,112891
1,717.567,112829
1,717.491,112979
1,717.415,112801
1,717.339,112686
1,717.263,112790
1,717.187,112940
1,717.111,112906
1,717.036,113170
1,716.96,113175
1,716.884,113245
1,716.808,112841
1,716.732,113256
1,716.656,113424
1,716.58,113249
1,716.505,113309
1,716.429,113328
1,716.353,113609
1,716.277,113086
1,716.201,113246
1,716.125,113464
1,716.049,113489
1,715.973,113454
1,715.898,113527
1,715.822,113623
1,715.746,113674
1,715.67,113765
1,715.594,113552
1,715.518,113671
1,715.442,113633
1,715.366,113616
1,715.291,113676
1,715.215,113728
1,715.139,113950
1,715.063,113960
1,714.987,113884
1,714.911,113833
1,714.835,113823
1,714.759,113919
1,714.684,113975
1,714.608,113969
1,714.532,113761
1,714.456,114064
1,714.38,113933
1,714.304,114131
1,714.228,114151
1,714.153,113994
1,714.077,114093
1,714.001,114220
1,713.925,114240
1,713.849,114246
1,713.773,114105
1,713.697,114416
1,713.621,114644
1,713.546,114458
1,713.47,114344
1,713.394,114281
1,713.318,114452
1,713.242,114421
1,713.166,114737
1,713.09,114605
1,713.014,114536
1,712.939,114531
1,712.863,114727
1,712.787,114583
1,712.711,114883
1,712.635,114654
1,712.559,114634
1,712.483,114657
1,712.407,114902
1,712.332,114947
1,712.256,114932
1,712.18,114988
1,712.104,114777
1,712.028,114993
1,711.952,114940
1,711.876,115198
1,711.801,115025
1,711.725,115382
1,711.649,114886
1,711.573,114977
1,711.497,115197
1,711.421,115006
1,711.345,115305
1,711.269,115344
1,711.194,115525
1,711.118,115527
1,711.042,115492
1,710.966,115614
1,710.89,115597
1,710.814,115765
1,710.738,115513
1,710.662,115543
1,710.587,115796
1,710.511,115822
1,710.435,115817
1,710.359,115966
1,710.283,115830
1,710.207,115926
1,710.131,115925
1,710.055,116238
1,709.98,116040
1,709.904,116024
1,709.828,116122
1,709.752,116312
1,709.676,116108
1,709.6,116419
1,709.524,116239
1,709.449,116255
1,709.373,116263
1,709.297,116384
1,709.221,116637
1,709.145,116707
1,709.069,116427
1,708.993,116499
1,708.917,116531
1,708.842,116483
1,708.766,116501
1,708.69,116906
1,708.614,116762
1,708.538,116950
1,708.462,116847
1,708.386,116875
1,708.31,117032
1,708.235,117243
1,708.159,117112
1,708.083,116761
1,708.007,117002
1,707.931,117070
1,707.855,117057
1,707.779,117098
1,707.704,117365
1,707.628,117087
1,707.552,117426
1,707.476,117091
1,707.4,117535
1,707.324,117411
1,707.248,117396
1,707.172,117515
1,707.097,117544
1,707.021,117891
1,706.945,117534
1,706.869,117575
1,706.793,117467
1,706.717,117758
1,706.641,117580
1,706.565,117936
1,706.49,117642
1,706.414,117386
1,706.338,117643
1,706.262,117800
1,706.186,118086
1,706.11,117841
1,706.034,117764
1,705.958,117848
1,705.883,117906
1,705.807,117909
1,705.731,118027
1,705.655,117805
1,705.579,117955
1,705.503,117950
1,705.427,117918
1,705.352,118268
1,705.276,117907
1,705.2,118091
1,705.124,118118
1,705.048,118341
1,704.972,118245
1,704.896,118082
1,704.82,118256
1,704.745,118206
1,704.669,118503
1,704.593,118210
1,704.517,118340
1,704.441,118100
1,704.365,118362
1,704.289,118322
1,704.213,118136
1,704.138,118395
1,704.062,118548
1,703.986,118514
1,703.91,118069
1,703.834,118204
1,703.758,118175
1,703.682,118391
1,703.606,118331
1,703.531,118303
1,703.455,118468
1,703.379,118291
1,703.303,118384
1,703.227,118371
1,703.151,118540
1,703.075,118152
1,703,118137
1,702.924,118268
1,702.848,118294
1,702.772,118530
1,702.696,118420
1,702.62,118268
1,702.544,118462
1,702.468,118332
1,702.393,118459
1,702.317,118376
1,702.241,118450
1,702.165,118412
1,702.089,118299
1,702.013,118348
1,701.937,118480
1,701.861,118582
1,701.786,118595
1,701.71,118373
1,701.634,118393
1,701.558,118486
1,701.482,118873
1,701.406,118626
1,701.33,118601
1,701.254,118735
1,701.179,118703
1,701.103,118493
1,701.027,118811
1,700.951,118394
1,700.875,118618
1,700.799,118451
1,700.723,118692
1,700.648,118778
1,700.572,118553
1,700.496,118842
1,700.42,118971
1,700.344,118909
1,700.268,118676
1,700.192,118715
1,700.116,118699
1,700.041,118877
1,699.965,118746
1,699.889,118852
1,699.813,118920
1,699.737,118981
1,699.661,118862
1,699.585,118900
1,699.509,119200
1,699.434,119047
1,699.358,119314
1,699.282,119464
1,699.206,119157
1,699.13,119664
1,699.054,119227
1,698.978,119263
1,698.902,119382
1,698.827,119342
1,698.751,119548
1,698.675,119672
1,698.599,119456
1,698.523,119428
1,698.447,119597
1,698.371,119452
1,698.296,119563
1,698.22,119545
1,698.144,119650
1,698.068,119586
1,697.992,119740
1,697.916,119447
1,697.84,119854
1,697.764,119938
1,697.689,119839
1,697.613,119781
1,697.537,119755
1,697.461,120027
1,697.385,120160
1,697.309,119977
1,697.233,120002
1,697.157,120015
1,697.082,120062
1,697.006,120128
1,696.93,120127
1,696.854,120001
1,696.778,120220
1,696.702,119990
1,696.626,120106
1,696.55,120234
1,696.475,120021
1,696.399,120161
1,696.323,120110
1,696.247,120041
1,696.171,120256
1,696.095,120092
1,696.019,120065
1,695.944,120325
1,695.868,120425
1,695.792,120164
1,695.716,120378
1,695.64,120345
1,695.564,120273
1,695.488,120502
1,695.412,120353
1,695.337,120379
1,695.261,120614
1,695.185,120243
1,695.109,120546
1,695.033,120434
1,694.957,120637
1,694.881,120451
1,694.805,120451
1,694.73,120443
1,694.654,120509
1,694.578,120468
1,694.502,120553
1,694.426,120781
1,694.35,120564
1,694.274,120313
1,694.199,120520
1,694.123,120500
1,694.047,120780
1,693.971,120344
1,693.895,120393
1,693.819,120850
1,693.743,120557
1,693.667,120825
1,693.592,120626
1,693.516,120666
1,693.44,120571
1,693.364,120975
1,693.288,120824
1,693.212,120648
1,693.136,121016
1,693.06,120633
1,692.985,120830
1,692.909,120649
1,692.833,120780
1,692.757,121059
1,692.681,120985
1,692.605,121067
1,692.529,120877
1,692.453,120754
1,692.378,120894
1,692.302,121147
1,692.226,120754
1,692.15,121039
1,692.074,121158
1,691.998,121106
1,691.922,120873
1,691.847,121100
1,691.771,121242
1,691.695,121056
1,691.619,121342
1,691.543,121330
1,691.467,121308
1,691.391,121532
1,691.315,121322
1,691.24,121363
1,691.164,121554
1,691.088,121204
1,691.012,121276
1,690.936,121051
1,690.86,121403
1,690.784,121609
1,690.708,121476
1,690.633,121446
1,690.557,121400
1,690.481,121408
1,690.405,121495
1,690.329,121456
1,690.253,121668
1,690.177,121279
1,690.101,121528
1,690.026,121600
1,689.95,121463
1,689.874,121681
1,689.798,121597
1,689.722,121418
1,689.646,121494
1,689.57,121709
1,689.495,121559
1,689.419,121411
1,689.343,121742
1,689.267,121717
1,689.191,121611
1,689.115,121627
1,689.039,121610
1,688.963,121824
1,688.888,121655
1,688.812,121536
1,688.736,121714
1,688.66,121633
1,688.584,121699
1,688.508,121590
1,688.432,121647
1,688.356,121723
1,688.281,121812
1,688.205,121878
1,688.129,121813
1,688.053,121696
1,687.977,122118
1,687.901,121737
1,687.825,121778
1,687.749,121879
1,687.674,121648
1,687.598,121741
1,687.522,121747
1,687.446,121801
1,687.37,121751
1,687.294,121908
1,687.218,121821
1,687.143,121940
1,687.067,121709
1,686.991,121943
1,686.915,121937
1,686.839,121863
1,686.763,121686
1,686.687,121839
1,686.611,121729
1,686.536,121722
1,686.46,121433
1,686.384,121400
1,686.308,121612
1,686.232,121708
1,686.156,121862
1,686.08,121864
1,686.004,121652
1,685.929,121547
1,685.853,121976
1,685.777,121519
1,685.701,121758
1,685.625,121568
1,685.549,121631
1,685.473,121558
1,685.397,121630
1,685.322,121652
1,685.246,121630
1,685.17,121560
1,685.094,121590
1,685.018,121596
1,684.942,121504
1,684.866,121420
1,684.791,121490
1,684.715,121534
1,684.639,121524
1,684.563,121291
1,684.487,121617
1,684.411,121359
1,684.335,121335
1,684.259,121337
1,684.184,121474
1,684.108,121431
1,684.032,121300
1,683.956,121486
1,683.88,121261
1,683.804,121359
1,683.728,121215
1,683.652,121175
1,683.577,121446
1,683.501,121437
1,683.425,121243
1,683.349,121096
1,683.273,121272
1,683.197,121109
1,683.121,121138
1,683.045,121067
1,682.97,120949
1,682.894,121341
1,682.818,121145
1,682.742,121302
1,682.666,120856
1,682.59,120812
1,682.514,121152
1,682.439,120849
1,682.363,121144
1,682.287,121037
1,682.211,121257
1,682.135,121390
1,682.059,121307
1,681.983,121157
1,681.907,121092
1,681.832,120667
1,681.756,121178
1,681.68,121007
1,681.604,120814
1,681.528,120794
1,681.452,120791
1,681.376,120701
1,681.3,120693
1,681.225,120872
1,681.149,120808
1,681.073,120894
1,680.997,120784
1,680.921,120850
1,680.845,120730
1,680.769,120629
1,680.694,120679
1,680.618,120596
1,680.542,120494
1,680.466,120808
1,680.39,120553
1,680.314,120578
1,680.238,120494
1,680.162,120699
1,680.087,120526
1,680.011,120553
1,679.935,120490
1,679.859,120665
1,679.783,120381
1,679.707,120601
1,679.631,120462
1,679.555,120313
1,679.48,120563
1,679.404,120351
1,679.328,120293
1,679.252,120572
1,679.176,120380
1,679.1,120211
1,679.024,120294
1,678.948,120003
1,678.873,120150
1,678.797,120055
1,678.721,119958
1,678.645,120013
1,678.569,120096
1,678.493,120111
1,678.417,119965
1,678.342,119876
1,678.266,119870
1,678.19,120010
1,678.114,120038
1,678.038,119917
1,677.962,120066
1,677.886,119940
1,677.81,119666
1,677.735,119842
1,677.659,119564
1,677.583,119781
1,677.507,119716
1,677.431,119652
1,677.355,119573
1,677.279,119982
1,677.203,119515
1,677.128,119397
1,677.052,119481
1,676.976,119481
1,676.9,119409
1,676.824,119381
1,676.748,119303
1,676.672,119494
1,676.596,119274
1,676.521,119428
1,676.445,119458
1,676.369,119355
1,676.293,119288
1,676.217,119237
1,676.141,119443
1,676.065,119216
1,675.99,119008
1,675.914,119251
1,675.838,119285
1,675.762,118995
1,675.686,118972
1,675.61,119113
1,675.534,118933
1,675.458,118739
1,675.383,118992
1,675.307,118862
1,675.231,118866
1,675.155,118845
1,675.079,118638
1,675.003,118517
1,674.927,118518
1,674.851,118564
1,674.776,118466
1,674.7,118726
1,674.624,118469
1,674.548,118152
1,674.472,118186
1,674.396,118381
1,674.32,118475
1,674.244,118370
1,674.169,118124
1,674.093,118281
1,674.017,118200
1,673.941,117874
1,673.865,118102
1,673.789,118405
1,673.713,118176
1,673.638,117904
1,673.562,117980
1,673.486,117931
1,673.41,117981
1,673.334,117638
1,673.258,117878
1,673.182,117811
1,673.106,117650
1,673.031,117594
1,672.955,117509
1,672.879,117642
1,672.803,117419
1,672.727,117456
1,672.651,117280
1,672.575,117256
1,672.499,117434
1,672.424,117295
1,672.348,117222
1,672.272,117241
1,672.196,116945
1,672.12,117198
1,672.044,117204
1,671.968,117236
1,671.892,116957
1,671.817,116931
1,671.741,117036
1,671.665,117248
1,671.589,116823
1,671.513,116808
1,671.437,116870
1,671.361,116621
1,671.286,116649
1,671.21,116594
1,671.134,116589
1,671.058,116427
1,670.982,116497
1,670.906,116547
1,670.83,116350
1,670.754,116487
1,670.679,116312
1,670.603,116143
1,670.527,116376
1,670.451,116339
1,670.375,116284
1,670.299,116179
1,670.223,116089
1,670.147,116237
1,670.072,116164
1,669.996,115883
1,669.92,115917
1,669.844,115854
1,669.768,115745
1,669.692,115904
1,669.616,115595
1,669.54,115849
1,669.465,115473
1,669.389,115834
1,669.313,115429
1,669.237,115676
1,669.161,115549
1,669.085,115550
1,669.009,115456
1,668.934,115387
1,668.858,115112
1,668.782,115136
1,668.706,115173
1,668.63,115085
1,668.554,114806
1,668.478,115232
1,668.402,115269
1,668.327,114817
1,668.251,114991
1,668.175,115242
1,668.099,114982
1,668.023,114843
1,667.947,114994
1,667.871,114848
1,667.795,114708
1,667.72,114547
1,667.644,114838
1,667.568,114763
1,667.492,114712
1,667.416,114478
1,667.34,114458
1,667.264,114323
1,667.189,114699
1,667.113,114320
1,667.037,114426
1,666.961,114263
1,666.885,114248
1,666.809,113909
1,666.733,114084
1,666.657,114168
1,666.582,114336
1,666.506,114254
1,666.43,114032
1,666.354,114005
1,666.278,114032
1,666.202,113876
1,666.126,113786
1,666.05,113940
1,665.975,114048
1,665.899,113846
1,665.823,113670
1,665.747,113750
1,665.671,113924
1,665.595,113746
1,665.519,113578
1,665.443,113683
1,665.368,113426
1,665.292,113636
1,665.216,113558
1,665.14,113695
1,665.064,113474
1,664.988,113428
1,664.912,113302
1,664.837,113303
1,664.761,113313
1,664.685,113478
1,664.609,113254
1,664.533,113323
1,664.457,113103
1,664.381,113333
1,664.305,113138
1,664.23,113017
1,664.154,113007
1,664.078,113190
1,664.002,113005
1,663.926,113022
1,663.85,112966
1,663.774,113167
1,663.698,113072
1,663.623,112976
1,663.547,112856
1,663.471,113186
1,663.395,113003
1,663.319,112888
1,663.243,112891
1,663.167,112779
1,663.091,112748
1,663.016,112786
1,662.94,112615
1,662.864,112731
1,662.788,112719
1,662.712,112660
1,662.636,112578
1,662.56,112728
1,662.485,112575
1,662.409,112821
1,662.333,112565
1,662.257,112739
1,662.181,112315
1,662.105,112561
1,662.029,112563
1,661.953,112504
1,661.878,112500
1,661.802,112500
1,661.726,112040
1,661.65,112390
1,661.574,112355
1,661.498,112270
1,661.422,112556
1,661.346,112414
1,661.271,112268
1,661.195,112192
1,661.119,112139
1,661.043,112363
1,660.967,111990
1,660.891,112053
1,660.815,112179
1,660.739,112249
1,660.664,112366
1,660.588,112130
1,660.512,112142
1,660.436,112198
1,660.36,112223
1,660.284,112422
1,660.208,112331
1,660.133,112302
1,660.057,112217
1,659.981,112054
1,659.905,112223
1,659.829,112480
1,659.753,112305
1,659.677,112189
1,659.601,112369
1,659.526,112214
1,659.45,112101
1,659.374,112334
1,659.298,112071
1,659.222,112164
1,659.146,112060
1,659.07,112098
1,658.994,111966
1,658.919,112202
1,658.843,112043
1,658.767,112098
1,658.691,112136
1,658.615,112128
1,658.539,112527
1,658.463,112640
1,658.387,112022
1,658.312,112269
1,658.236,112482
1,658.16,112215
1,658.084,112463
1,658.008,112209
1,657.932,112257
1,657.856,112356
1,657.781,112263
1,657.705,112533
1,657.629,112308
1,657.553,112260
1,657.477,112115
1,657.401,112146
1,657.325,112373
1,657.249,112469
1,657.174,112504
1,657.098,112367
1,657.022,112311
1,656.946,112490
1,656.87,112313
1,656.794,112421
1,656.718,111994
1,656.642,111501
1,656.567,111348
1,656.491,111319
1,656.415,111768
1,656.339,111673
1,656.263,111775
1,656.187,112004
1,656.111,112057
1,656.035,112679
1,655.96,112557
1,655.884,113002
1,655.808,113040
1,655.732,113284
1,655.656,113314
1,655.58,113386
1,655.504,113339
1,655.429,113678
1,655.353,113479
1,655.277,113767
1,655.201,113695
1,655.125,113762
1,655.049,113768
1,654.973,113922
1,654.897,113699
1,654.822,114265
1,654.746,113892
1,654.67,114071
1,654.594,113773
1,654.518,113754
1,654.442,113801
1,654.366,113807
1,654.29,113910
1,654.215,113839
1,654.139,113432
1,654.063,113592
1,653.987,113687
1,653.911,113838
1,653.835,113703
1,653.759,113819
1,653.684,113640
1,653.608,113810
1,653.532,113722
1,653.456,113607
1,653.38,113717
1,653.304,113655
1,653.228,113999
1,653.152,113666
1,653.077,113772
1,653.001,113769
1,652.925,113631
1,652.849,113735
1,652.773,113895
1,652.697,113768
1,652.621,113817
1,652.545,113536
1,652.47,113839
1,652.394,113570
1,652.318,113654
1,652.242,113549
1,652.166,113784
1,652.09,113434
1,652.014,113539
1,651.938,113441
1,651.863,113417
1,651.787,113399
1,651.711,113569
1,651.635,113581
1,651.559,113649
1,651.483,113343
1,651.407,113614
1,651.332,113564
1,651.256,113337
1,651.18,113552
1,651.104,113443
1,651.028,113388
1,650.952,113304
1,650.876,113398
1,650.8,113558
1,650.725,113285
1,650.649,113398
1,650.573,113343
1,650.497,113199
1,650.421,113228
1,650.345,113331
1,650.269,113196
1,650.193,112997
1,650.118,112980
1,650.042,112727
1,649.966,112993
1,649.89,113300
1,649.814,112928
1,649.738,113135
1,649.662,112935
1,649.586,112932
1,649.511,112785
1,649.435,112627
1,649.359,112921
1,649.283,112515
1,649.207,112877
1,649.131,112486
1,649.055,112722
1,648.98,112861
1,648.904,112554
1,648.828,112569
1,648.752,112444
1,648.676,112482
1,648.6,112504
1,648.524,112354
1,648.448,112525
1,648.373,112398
1,648.297,112267
1,648.221,112595
1,648.145,112217
1,648.069,112211
1,647.993,112320
1,647.917,112217
1,647.841,112263
1,647.766,112393
1,647.69,112432
1,647.614,112067
1,647.538,112255
1,647.462,112074
1,647.386,112098
1,647.31,112115
1,647.234,111786
1,647.159,111792
1,647.083,111666
1,647.007,112095
1,646.931,111846
1,646.855,111852
1,646.779,111819
1,646.703,111647
1,646.628,111664
1,646.552,111799
1,646.476,111818
1,646.4,111751
1,646.324,111544
1,646.248,111653
1,646.172,111459
1,646.096,111597
1,646.021,111556
1,645.945,111427
1,645.869,111207
1,645.793,111282
1,645.717,111234
1,645.641,111186
1,645.565,111222
1,645.489,111275
1,645.414,111415
1,645.338,111127
1,645.262,111511
1,645.186,110970
1,645.11,111299
1,645.034,110934
1,644.958,111028
1,644.882,111179
1,644.807,111041
1,644.731,111121
1,644.655,111229
1,644.579,111211
1,644.503,111169
1,644.427,111403
1,644.351,111491
1,644.276,111440
1,644.2,111896
1,644.124,112189
1,644.048,112374
1,643.972,112532
1,643.896,112372
1,643.82,112712
1,643.744,112849
1,643.669,112986
1,643.593,113217
1,643.517,113604
1,643.441,113902
1,643.365,113610
1,643.289,112769
1,643.213,112813
1,643.137,112092
1,643.062,111900
1,642.986,111612
1,642.91,111798
1,642.834,111316
1,642.758,111098
1,642.682,111242
1,642.606,111080
1,642.53,110931
1,642.455,110506
1,642.379,110604
1,642.303,110871
1,642.227,110534
1,642.151,110574
1,642.075,110298
1,641.999,110244
1,641.924,110060
1,641.848,110190
1,641.772,110123
1,641.696,109907
1,641.62,109691
1,641.544,109522
1,641.468,109385
1,641.392,108981
1,641.317,108671
1,641.241,108546
1,641.165,108441
1,641.089,108505
1,641.013,108548
1,640.937,108496
1,640.861,108466
1,640.785,108657
1,640.71,108562
1,640.634,108857
1,640.558,109427
1,640.482,109774
1,640.406,110003
1,640.33,110122
1,640.254,110755
1,640.179,111476
1,640.103,111901
1,640.027,112091
1,639.951,112487
1,639.875,112811
1,639.799,114366
1,639.723,114860
1,639.647,115008
1,639.572,114584
1,639.496,114625
1,639.42,114778
1,639.344,112608
1,639.268,110110
1,639.192,108912
1,639.116,108401
1,639.04,108142
1,638.965,107576
1,638.889,106901
1,638.813,106802
1,638.737,106626
1,638.661,106548
1,638.585,106287
1,638.509,106459
1,638.433,106048
1,638.358,106444
1,638.282,106172
1,638.206,105971
1,638.13,105792
1,638.054,106110
1,637.978,105905
1,637.902,105737
1,637.827,106056
1,637.751,105862
1,637.675,105793
1,637.599,105929
1,637.523,105818
1,637.447,106023
1,637.371,106078
1,637.295,106065
1,637.22,106442
1,637.144,106544
1,637.068,106791
1,636.992,107232
1,636.916,107133
1,636.84,107474
1,636.764,107596
1,636.688,107183
1,636.613,107234
1,636.537,107122
1,636.461,107173
1,636.385,106899
1,636.309,106943
1,636.233,106858
1,636.157,107140
1,636.081,107128
1,636.006,107306
1,635.93,107903
1,635.854,108672
1,635.778,109283
1,635.702,109931
1,635.626,110517
1,635.55,110995
1,635.475,111629
1,635.399,111953
1,635.323,112552
1,635.247,112644
1,635.171,112995
1,635.095,115026
1,635.019,117138
1,634.943,117718
1,634.868,120335
1,634.792,121886
1,634.716,127725
1,634.64,134092
1,634.564,140242
1,634.488,152540
1,634.412,193174
1,634.336,223735
1,634.261,265087
1,634.185,336388
1,634.109,612380
1,634.033,759905
1,633.957,907436
1,633.881,1.02412e+006
1,633.805,950847
1,633.729,861840
1,633.654,769655
1,633.578,555440
1,633.502,478106
1,633.426,405729
1,633.35,327771
1,633.274,225306
1,633.198,193123
1,633.123,184761
1,633.047,163268
1,632.971,139761
1,632.895,131509
1,632.819,129157
1,632.743,124269
1,632.667,119690
1,632.591,117925
1,632.516,116478
1,632.44,114942
1,632.364,113465
1,632.288,112760
1,632.212,112060
1,632.136,111039
1,632.06,110702
1,631.984,110062
1,631.909,109583
1,631.833,108624
1,631.757,108570
1,631.681,107990
1,631.605,107784
1,631.529,107154
1,631.453,106875
1,631.377,106734
1,631.302,106096
1,631.226,105772
1,631.15,105405
1,631.074,105044
1,630.998,104667
1,630.922,104547
1,630.846,103973
1,630.771,103697
1,630.695,103516
1,630.619,103110
1,630.543,102843
1,630.467,102513
1,630.391,102299
1,630.315,102200
1,630.239,101875
1,630.164,101649
1,630.088,101496
1,630.012,101335
1,629.936,101217
1,629.86,100854
1,629.784,100677
1,629.708,100799
1,629.632,100667
1,629.557,100661
1,629.481,100609
1,629.405,100248
1,629.329,99923
1,629.253,100142
1,629.177,99945
1,629.101,99762
1,629.025,99507
1,628.95,99633
1,628.874,99492
1,628.798,99546
1,628.722,99150
1,628.646,99377
1,628.57,99223
1,628.494,99128
1,628.419,98943
1,628.343,98767
1,628.267,98933
1,628.191,98615
1,628.115,98772
1,628.039,98278
1,627.963,98203
1,627.887,98373
1,627.812,98061
1,627.736,98198
1,627.66,98025
1,627.584,98177
1,627.508,97969
1,627.432,97834
1,627.356,97751
1,627.28,97648
1,627.205,97816
1,627.129,97596
1,627.053,97430
1,626.977,97234
1,626.901,97224
1,626.825,97191
1,626.749,97040
1,626.674,97008
1,626.598,96964
1,626.522,97015
1,626.446,96781
1,626.37,96759
1,626.294,96781
1,626.218,96853
1,626.142,96592
1,626.067,96393
1,625.991,96502
1,625.915,96430
1,625.839,96550
1,625.763,96334
1,625.687,96286
1,625.611,96426
1,625.535,96250
1,625.46,96286
1,625.384,95935
1,625.308,95840
1,625.232,96171
1,625.156,96054
1,625.08,95719
1,625.004,95857
1,624.928,95837
1,624.853,95808
1,624.777,95733
1,624.701,95407
1,624.625,95324
1,624.549,95388
1,624.473,95297
1,624.397,95282
1,624.322,95278
1,624.246,95262
1,624.17,95022
1,624.094,94826
1,624.018,94923
1,623.942,94802
