1,725.533,105054
1,725.457,104930
1,725.381,105429
1,725.306,105373
1,725.23,105793
1,725.154,106029
1,725.078,106378
1,725.002,106706
1,724.926,106835
1,724.85,107006
1,724.774,107297
1,724.699,107499
1,724.623,107915
1,724.547,107970
1,724.471,108533
1,724.395,108206
1,724.319,108950
1,724.243,108989
1,724.167,109185
1,724.092,109285
1,724.016,109571
1,723.94,109949
1,723.864,109826
1,723.788,110333
1,723.712,110463
1,723.636,110725
1,723.56,110909
1,723.485,111110
1,723.409,111350
1,723.333,111566
1,723.257,111537
1,723.181,112047
1,723.105,111950
1,723.029,112261
1,722.954,112337
1,722.878,112458
1,722.802,112726
1,722.726,113098
1,722.65,113097
1,722.574,113175
1,722.498,113367
1,722.422,113228
1,722.347,113857
1,722.271,113839
1,722.195,114201
1,722.119,114000
1,722.043,114168
1,721.967,114258
1,721.891,114271
1,721.815,114466
1,721.74,114553
1,721.664,114859
1,721.588,114789
1,721.512,114864
1,721.436,114961
1,721.36,115227
1,721.284,115328
1,721.209,115548
1,721.133,115660
1,721.057,115652
1,720.981,115754
1,720.905,115732
1,720.829,116066
1,720.753,115967
1,720.677,116229
1,720.602,116326
1,720.526,116446
1,720.45,116592
1,720.374,116607
1,720.298,116918
1,720.222,116856
1,720.146,116933
1,720.07,117223
1,719.995,117236
1,719.919,117111
1,719.843,117178
1,719.767,117393
1,719.691,117527
1,719.615,117718
1,719.539,117573
1,719.463,117874
1,719.388,117900
1,719.312,117925
1,719.236,117968
1,719.16,118093
1,719.084,118004
1,719.008,118296
1,718.932,118188
1,718.857,118439
1,718.781,118557
1,718.705,118584
1,718.629,118880
1,718.553,118632
1,718.477,118736
1,718.401,118776
1,718.325,118980
1,718.25,119065
1,718.174,119274
1,718.098,119215
1,718.022,119003
1,717.946,119173
1,717.87,119212
1,717.794,119321
1,717.718,119392
1,717.643,119242
1,717.567,119343
1,717.491,119487
1,717.415,119772
1,717.339,119662
1,717.263,119645
1,717.187,119670
1,717.111,119756
1,717.036,119662
1,716.96,119835
1,716.884,119833
1,716.808,120005
1,716.732,119934
1,716.656,120301
1,716.58,120252
1,716.505,120084
1,716.429,120051
1,716.353,120333
1,716.277,120226
1,716.201,120323
1,716.125,120346
1,716.049,120542
1,715.973,120600
1,715.898,120442
1,715.822,120643
1,715.746,120420
1,715.67,120807
1,715.594,120693
1,715.518,120784
1,715.442,120586
1,715.366,120347
1,715.291,120930
1,715.215,121007
1,715.139,120953
1,715.063,121140
1,714.987,120994
1,714.911,121188
1,714.835,121269
1,714.759,121139
1,714.684,120965
1,714.608,121270
1,714.532,121194
1,714.456,121286
1,714.38,121378
1,714.304,121283
1,714.228,121475
1,714.153,121540
1,714.077,121578
1,714.001,121639
1,713.925,121668
1,713.849,121505
1,713.773,121562
1,713.697,121551
1,713.621,121749
1,713.546,121606
1,713.47,121677
1,713.394,121765
1,713.318,122154
1,713.242,121920
1,713.166,122042
1,713.09,122101
1,713.014,122094
1,712.939,121953
1,712.863,122365
1,712.787,122168
1,712.711,122237
1,712.635,122469
1,712.559,122389
1,712.483,122428
1,712.407,122620
1,712.332,122416
1,712.256,122601
1,712.18,122499
1,712.104,122405
1,712.028,122466
1,711.952,122590
1,711.876,122674
1,711.801,123072
1,711.725,122780
1,711.649,122736
1,711.573,122849
1,711.497,123059
1,711.421,122853
1,711.345,123166
1,711.269,123165
1,711.194,123293
1,711.118,123401
1,711.042,123584
1,710.966,123585
1,710.89,123463
1,710.814,123730
1,710.738,123685
1,710.662,123709
1,710.587,123683
1,710.511,123665
1,710.435,123551
1,710.359,123729
1,710.283,124097
1,710.207,123935
1,710.131,124227
1,710.055,124025
1,709.98,123960
1,709.904,124050
1,709.828,124233
1,709.752,124219
1,709.676,124123
1,709.6,124069
1,709.524,124338
1,709.449,124363
1,709.373,124386
1,709.297,124361
1,709.221,124432
1,709.145,124586
1,709.069,124468
1,708.993,124804
1,708.917,124584
1,708.842,124611
1,708.766,124874
1,708.69,124795
1,708.614,124596
1,708.538,124787
1,708.462,124920
1,708.386,124597
1,708.31,124792
1,708.235,124811
1,708.159,124828
1,708.083,125235
1,708.007,125085
1,707.931,125184
1,707.855,125129
1,707.779,125230
1,707.704,125235
1,707.628,125264
1,707.552,125505
1,707.476,125238
1,707.4,125415
1,707.324,125442
1,707.248,125529
1,707.172,125538
1,707.097,125709
1,707.021,125610
1,706.945,125651
1,706.869,125644
1,706.793,125867
1,706.717,125842
1,706.641,125688
1,706.565,125773
1,706.49,125866
1,706.414,125623
1,706.338,126041
1,706.262,126111
1,706.186,126028
1,706.11,125972
1,706.034,125930
1,705.958,126205
1,705.883,126149
1,705.807,126213
1,705.731,126190
1,705.655,126302
1,705.579,126590
1,705.503,126616
1,705.427,127015
1,705.352,126441
1,705.276,126727
1,705.2,127021
1,705.124,126764
1,705.048,126976
1,704.972,126861
1,704.896,127034
1,704.82,126967
1,704.745,127061
1,704.669,126954
1,704.593,127136
1,704.517,127106
1,704.441,127260
1,704.365,127175
1,704.289,127275
1,704.213,127388
1,704.138,127234
1,704.062,127515
1,703.986,127437
1,703.91,127381
1,703.834,127282
1,703.758,126852
1,703.682,127457
1,703.606,127248
1,703.531,127454
1,703.455,127687
1,703.379,127516
1,703.303,127442
1,703.227,127642
1,703.151,127596
1,703.075,128024
1,703,127889
1,702.924,127913
1,702.848,127941
1,702.772,128009
1,702.696,127960
1,702.62,128139
1,702.544,128013
1,702.468,128065
1,702.393,128140
1,702.317,128205
1,702.241,128190
1,702.165,128236
1,702.089,128425
1,702.013,128432
1,701.937,128486
1,701.861,128715
1,701.786,128808
1,701.71,128510
1,701.634,128645
1,701.558,128644
1,701.482,128884
1,701.406,128984
1,701.33,128956
1,701.254,129026
1,701.179,129479
1,701.103,129236
1,701.027,129427
1,700.951,129215
1,700.875,129310
1,700.799,129620
1,700.723,129615
1,700.648,129692
1,700.572,129570
1,700.496,129885
1,700.42,129982
1,700.344,130151
1,700.268,130206
1,700.192,130355
1,700.116,130304
1,700.041,130392
1,699.965,130817
1,699.889,130721
1,699.813,130784
1,699.737,130773
1,699.661,130912
1,699.585,131276
1,699.509,131604
1,699.434,131828
1,699.358,131704
1,699.282,132126
1,699.206,132055
1,699.13,132236
1,699.054,132558
1,698.978,132784
1,698.902,132832
1,698.827,133347
1,698.751,133552
1,698.675,133872
1,698.599,134150
1,698.523,134402
1,698.447,134981
1,698.371,135417
1,698.296,136120
1,698.22,136435
1,698.144,136787
1,698.068,137513
1,697.992,137975
1,697.916,138761
1,697.84,139236
1,697.764,139822
1,697.689,139438
1,697.613,139900
1,697.537,140258
1,697.461,140102
1,697.385,140086
1,697.309,140180
1,697.233,140111
1,697.157,140441
1,697.082,141064
1,697.006,141697
1,696.93,142338
1,696.854,143454
1,696.778,144404
1,696.702,146115
1,696.626,147249
1,696.55,149067
1,696.475,150432
1,696.399,151509
1,696.323,152645
1,696.247,152779
1,696.171,153264
1,696.095,152270
1,696.019,151851
1,695.944,151063
1,695.868,149738
1,695.792,148416
1,695.716,147478
1,695.64,146089
1,695.564,144955
1,695.488,143911
1,695.412,143056
1,695.337,142011
1,695.261,141367
1,695.185,140894
1,695.109,140157
1,695.033,139304
1,694.957,139370
1,694.881,138722
1,694.805,138631
1,694.73,138378
1,694.654,138136
1,694.578,137533
1,694.502,137888
1,694.426,137361
1,694.35,137405
1,694.274,137045
1,694.199,137072
1,694.123,136506
1,694.047,136505
1,693.971,136318
1,693.895,136264
1,693.819,136319
1,693.743,136251
1,693.667,135742
1,693.592,135753
1,693.516,135319
1,693.44,135699
1,693.364,135427
1,693.288,135202
1,693.212,135148
1,693.136,135247
1,693.06,135436
1,692.985,135228
1,692.909,135114
1,692.833,135127
1,692.757,135106
1,692.681,134905
1,692.605,135102
1,692.529,134949
1,692.453,135181
1,692.378,134969
1,692.302,134857
1,692.226,134685
1,692.15,134549
1,692.074,134511
1,691.998,134224
1,691.922,134194
1,691.847,134092
1,691.771,134120
1,691.695,134340
1,691.619,133941
1,691.543,133975
1,691.467,133806
1,691.391,133813
1,691.315,133881
1,691.24,133716
1,691.164,133496
1,691.088,133829
1,691.012,133658
1,690.936,133911
1,690.86,133919
1,690.784,133599
1,690.708,133999
1,690.633,133987
1,690.557,133985
1,690.481,133572
1,690.405,133793
1,690.329,133790
1,690.253,133645
1,690.177,133843
1,690.101,133568
1,690.026,133849
1,689.95,133812
1,689.874,133943
1,689.798,134094
1,689.722,134092
1,689.646,133904
1,689.57,134063
1,689.495,134073
1,689.419,133749
1,689.343,134079
1,689.267,134034
1,689.191,133854
1,689.115,134200
1,689.039,134291
1,688.963,134133
1,688.888,134368
1,688.812,134360
1,688.736,134364
1,688.66,134362
1,688.584,134567
1,688.508,134420
1,688.432,134731
1,688.356,134703
1,688.281,134872
1,688.205,134842
1,688.129,135087
1,688.053,135460
1,687.977,135878
1,687.901,136121
1,687.825,136317
1,687.749,136810
1,687.674,137489
1,687.598,137608
1,687.522,138583
1,687.446,139142
1,687.37,139715
1,687.294,140315
1,687.218,140471
1,687.143,140908
1,687.067,140742
1,686.991,140301
1,686.915,139702
1,686.839,139512
1,686.763,138456
1,686.687,138179
1,686.611,137541
1,686.536,136670
1,686.46,136347
1,686.384,136073
1,686.308,135779
1,686.232,135268
1,686.156,135409
1,686.08,134624
1,686.004,134921
1,685.929,134658
1,685.853,134225
1,685.777,134355
1,685.701,134165
1,685.625,134183
1,685.549,134083
1,685.473,134025
1,685.397,134149
1,685.322,133719
1,685.246,134076
1,685.17,133939
1,685.094,133616
1,685.018,133537
1,684.942,133550
1,684.866,133197
1,684.791,133444
1,684.715,133418
1,684.639,133077
1,684.563,133119
1,684.487,132883
1,684.411,132858
1,684.335,133051
1,684.259,132969
1,684.184,132919
1,684.108,132649
1,684.032,132733
1,683.956,133055
1,683.88,132850
1,683.804,132606
1,683.728,132525
1,683.652,132897
1,683.577,132830
1,683.501,132681
1,683.425,132952
1,683.349,132879
1,683.273,132532
1,683.197,132762
1,683.121,132668
1,683.045,132452
1,682.97,132584
1,682.894,132663
1,682.818,132577
1,682.742,132591
1,682.666,132395
1,682.59,132591
1,682.514,132549
1,682.439,132728
1,682.363,132482
1,682.287,132197
1,682.211,132587
1,682.135,132626
1,682.059,132695
1,681.983,132909
1,681.907,133111
1,681.832,132796
1,681.756,133049
1,681.68,132742
1,681.604,132945
1,681.528,133274
1,681.452,132910
1,681.376,133330
1,681.3,133289
1,681.225,133282
1,681.149,133182
1,681.073,133493
1,680.997,133335
1,680.921,133534
1,680.845,133655
1,680.769,133912
1,680.694,133946
1,680.618,133994
1,680.542,134024
1,680.466,134679
1,680.39,134671
1,680.314,135080
1,680.238,134990
1,680.162,135714
1,680.087,135873
1,680.011,136371
1,679.935,136755
1,679.859,137135
1,679.783,137691
1,679.707,137927
1,679.631,138146
1,679.555,138492
1,679.48,138711
1,679.404,139230
1,679.328,139523
1,679.252,139930
1,679.176,141119
1,679.1,141702
1,679.024,142892
1,678.948,144170
1,678.873,146170
1,678.797,147601
1,678.721,149120
1,678.645,150165
1,678.569,150843
1,678.493,150838
1,678.417,150782
1,678.342,150274
1,678.266,148972
1,678.19,147807
1,678.114,146676
1,678.038,145400
1,677.962,144377
1,677.886,142922
1,677.81,142273
1,677.735,141368
1,677.659,140896
1,677.583,140480
1,677.507,139946
1,677.431,139447
1,677.355,139681
1,677.279,139455
1,677.203,139917
1,677.128,139965
1,677.052,140471
1,676.976,141486
1,676.9,142169
1,676.824,143454
1,676.748,144705
1,676.672,146084
1,676.596,146525
1,676.521,147062
1,676.445,147260
1,676.369,147000
1,676.293,146468
1,676.217,144995
1,676.141,144243
1,676.065,142908
1,675.99,141351
1,675.914,140187
1,675.838,138823
1,675.762,137403
1,675.686,136762
1,675.61,136080
1,675.534,135134
1,675.458,134703
1,675.383,134253
1,675.307,133534
1,675.231,133431
1,675.155,132666
1,675.079,132610
1,675.003,132333
1,674.927,132166
1,674.851,131887
1,674.776,131646
1,674.7,131581
1,674.624,131302
1,674.548,131360
1,674.472,131198
1,674.396,130799
1,674.32,130819
1,674.244,130660
1,674.169,130643
1,674.093,130635
1,674.017,130707
1,673.941,130181
1,673.865,130099
1,673.789,130155
1,673.713,130194
1,673.638,130183
1,673.562,129848
1,673.486,129824
1,673.41,129849
1,673.334,129899
1,673.258,129822
1,673.182,129569
1,673.106,129623
1,673.031,129301
1,672.955,129501
1,672.879,129619
1,672.803,129311
1,672.727,129382
1,672.651,129474
1,672.575,129189
1,672.499,129113
1,672.424,129191
1,672.348,129012
1,672.272,128836
1,672.196,129254
1,672.12,128984
1,672.044,128876
1,671.968,129088
1,671.892,128877
1,671.817,128786
1,671.741,128924
1,671.665,128760
1,671.589,128771
1,671.513,128855
1,671.437,128744
1,671.361,128670
1,671.286,128958
1,671.21,128892
1,671.134,128945
1,671.058,128805
1,670.982,128795
1,670.906,128871
1,670.83,129050
1,670.754,128953
1,670.679,129019
1,670.603,129128
1,670.527,129068
1,670.451,129394
1,670.375,129609
1,670.299,129666
1,670.223,130024
1,670.147,130249
1,670.072,130208
1,669.996,130819
1,669.92,131148
1,669.844,131757
1,669.768,132243
1,669.692,133747
1,669.616,134899
1,669.54,137009
1,669.465,139473
1,669.389,143488
1,669.313,148466
1,669.237,154657
1,669.161,161625
1,669.085,169235
1,669.009,175573
1,668.934,180040
1,668.858,181630
1,668.782,180484
1,668.706,176283
1,668.63,170281
1,668.554,163442
1,668.478,156325
1,668.402,150260
1,668.327,144366
1,668.251,140124
1,668.175,136834
1,668.099,134553
1,668.023,132753
1,667.947,131730
1,667.871,130791
1,667.795,130114
1,667.72,129347
1,667.644,129145
1,667.568,128735
1,667.492,128448
1,667.416,128035
1,667.34,127786
1,667.264,127628
1,667.189,127273
1,667.113,127212
1,667.037,126957
1,666.961,126750
1,666.885,126714
1,666.809,126671
1,666.733,126623
1,666.657,126648
1,666.582,126453
1,666.506,126392
1,666.43,126393
1,666.354,125957
1,666.278,126001
1,666.202,126227
1,666.126,126118
1,666.05,125928
1,665.975,125726
1,665.899,125971
1,665.823,125794
1,665.747,125748
1,665.671,125679
1,665.595,125951
1,665.519,125613
1,665.443,125566
1,665.368,125540
1,665.292,125297
1,665.216,125241
1,665.14,125334
1,665.064,125233
1,664.988,125031
1,664.912,125166
1,664.837,124958
1,664.761,125273
1,664.685,124569
1,664.609,124921
1,664.533,125084
1,664.457,124806
1,664.381,124495
1,664.305,124469
1,664.23,124986
1,664.154,124681
1,664.078,124374
1,664.002,124356
1,663.926,124756
1,663.85,124371
1,663.774,124435
1,663.698,124566
1,663.623,124386
1,663.547,124253
1,663.471,124225
1,663.395,124233
1,663.319,124379
1,663.243,123998
1,663.167,123960
1,663.091,124427
1,663.016,124307
1,662.94,124252
1,662.864,124103
1,662.788,124049
1,662.712,123911
1,662.636,124100
1,662.56,123954
1,662.485,124331
1,662.409,124043
1,662.333,123892
1,662.257,123572
1,662.181,123888
1,662.105,123746
1,662.029,123750
1,661.953,123680
1,661.878,123741
1,661.802,123541
1,661.726,123539
1,661.65,123734
1,661.574,123527
1,661.498,123499
1,661.422,123349
1,661.346,123548
1,661.271,123420
1,661.195,123632
1,661.119,123423
1,661.043,123670
1,660.967,123660
1,660.891,123506
1,660.815,123404
1,660.739,123562
1,660.664,123479
1,660.588,123569
1,660.512,123521
1,660.436,123520
1,660.36,123510
1,660.284,123526
1,660.208,123476
1,660.133,123063
1,660.057,123616
1,659.981,123221
1,659.905,123605
1,659.829,123585
1,659.753,123153
1,659.677,123495
1,659.601,123465
1,659.526,123432
1,659.45,123283
1,659.374,123323
1,659.298,123220
1,659.222,123343
1,659.146,123194
1,659.07,123326
1,658.994,123240
1,658.919,123227
1,658.843,123197
1,658.767,123362
1,658.691,123371
1,658.615,123425
1,658.539,123318
1,658.463,123067
1,658.387,123157
1,658.312,123191
1,658.236,123368
1,658.16,123220
1,658.084,123387
1,658.008,123230
1,657.932,123223
1,657.856,123508
1,657.781,123457
1,657.705,123520
1,657.629,123411
1,657.553,123424
1,657.477,123384
1,657.401,123592
1,657.325,123620
1,657.249,123391
1,657.174,123591
1,657.098,123447
1,657.022,123426
1,656.946,123293
1,656.87,123157
1,656.794,123000
1,656.718,122866
1,656.642,122399
1,656.567,122694
1,656.491,122613
1,656.415,122798
1,656.339,122441
1,656.263,122643
1,656.187,122933
1,656.111,122954
1,656.035,123284
1,655.96,123314
1,655.884,123376
1,655.808,123667
1,655.732,123823
1,655.656,124067
1,655.58,123939
1,655.504,124051
1,655.429,124309
1,655.353,124184
1,655.277,124390
1,655.201,124263
1,655.125,124235
1,655.049,124246
1,654.973,124386
1,654.897,124301
1,654.822,124434
1,654.746,124609
1,654.67,124504
1,654.594,124340
1,654.518,124462
1,654.442,124774
1,654.366,124405
1,654.29,124605
1,654.215,124305
1,654.139,124238
1,654.063,124466
1,653.987,124147
1,653.911,124127
1,653.835,124191
1,653.759,124202
1,653.684,124070
1,653.608,124152
1,653.532,124224
1,653.456,123994
1,653.38,124023
1,653.304,124113
1,653.228,124398
1,653.152,123840
1,653.077,124248
1,653.001,124048
1,652.925,124005
1,652.849,124051
1,652.773,124205
1,652.697,124062
1,652.621,124320
1,652.545,123894
1,652.47,124122
1,652.394,124111
1,652.318,124249
1,652.242,124247
1,652.166,124325
1,652.09,124407
1,652.014,124146
1,651.938,124048
1,651.863,124409
1,651.787,124255
1,651.711,124016
1,651.635,124306
1,651.559,124282
1,651.483,124500
1,651.407,124418
1,651.332,124314
1,651.256,124802
1,651.18,124717
1,651.104,124790
1,651.028,125061
1,650.952,125253
1,650.876,125260
1,650.8,125789
1,650.725,125701
1,650.649,126296
1,650.573,126409
1,650.497,126459
1,650.421,126897
1,650.345,126952
1,650.269,127265
1,650.193,127255
1,650.118,127454
1,650.042,127100
1,649.966,127147
1,649.89,126862
1,649.814,126282
1,649.738,126319
1,649.662,125646
1,649.586,125134
1,649.511,124790
1,649.435,124599
1,649.359,123719
1,649.283,123905
1,649.207,123559
1,649.131,123356
1,649.055,123206
1,648.98,123312
1,648.904,123159
1,648.828,122719
1,648.752,122603
1,648.676,122716
1,648.6,122487
1,648.524,122140
1,648.448,122344
1,648.373,121951
1,648.297,121881
1,648.221,122139
1,648.145,121707
1,648.069,121862
1,647.993,121951
1,647.917,121514
1,647.841,121748
1,647.766,121560
1,647.69,121616
1,647.614,121401
1,647.538,121428
1,647.462,121227
1,647.386,121274
1,647.31,121185
1,647.234,121023
1,647.159,120846
1,647.083,120670
1,647.007,121102
1,646.931,120807
1,646.855,120586
1,646.779,120398
1,646.703,120546
1,646.628,120332
1,646.552,120354
1,646.476,120255
1,646.4,120066
1,646.324,119855
1,646.248,119684
1,646.172,119637
1,646.096,119612
1,646.021,119389
1,645.945,119034
1,645.869,119469
1,645.793,119230
1,645.717,119153
1,645.641,119046
1,645.565,119063
1,645.489,118672
1,645.414,118797
1,645.338,118345
1,645.262,118443
1,645.186,118127
1,645.11,118091
1,645.034,118075
1,644.958,118022
1,644.882,117877
1,644.807,117998
1,644.731,117652
1,644.655,117247
1,644.579,117468
1,644.503,117692
1,644.427,117896
1,644.351,117910
1,644.276,117558
1,644.2,117752
1,644.124,117959
1,644.048,118007
1,643.972,117930
1,643.896,117709
1,643.82,117937
1,643.744,117965
1,643.669,117864
1,643.593,117816
1,643.517,118366
1,643.441,118254
1,643.365,117602
1,643.289,116974
1,643.213,116480
1,643.137,116227
1,643.062,115702
1,642.986,115112
1,642.91,115006
1,642.834,114722
1,642.758,114233
1,642.682,114172
1,642.606,113882
1,642.53,113365
1,642.455,112999
1,642.379,112978
1,642.303,112777
1,642.227,112364
1,642.151,112041
1,642.075,111887
1,641.999,111632
1,641.924,110951
1,641.848,110846
1,641.772,110701
1,641.696,110351
1,641.62,110413
1,641.544,109744
1,641.468,109684
1,641.392,109062
1,641.317,108867
1,641.241,108708
1,641.165,108331
1,641.089,108252
1,641.013,108387
1,640.937,108230
1,640.861,108399
1,640.785,108350
1,640.71,108347
1,640.634,108758
1,640.558,108893
1,640.482,109179
1,640.406,109413
1,640.33,109820
1,640.254,110293
1,640.179,110615
1,640.103,110761
1,640.027,111111
1,639.951,111073
1,639.875,112065
1,639.799,113345
1,639.723,113919
1,639.647,114189
1,639.572,113810
1,639.496,113538
1,639.42,113737
1,639.344,111630
1,639.268,109513
1,639.192,108369
1,639.116,107987
1,639.04,107720
1,638.965,107199
1,638.889,106669
1,638.813,106414
1,638.737,106279
1,638.661,106097
1,638.585,105960
1,638.509,105749
1,638.433,105779
1,638.358,105830
1,638.282,105733
1,638.206,105708
1,638.13,105533
1,638.054,105721
1,637.978,105723
1,637.902,105500
1,637.827,105676
1,637.751,105432
1,637.675,105531
1,637.599,105380
1,637.523,105607
1,637.447,105489
1,637.371,105571
1,637.295,105898
1,637.22,106012
1,637.144,106057
1,637.068,106430
1,636.992,106661
1,636.916,106945
1,636.84,106969
1,636.764,106939
1,636.688,106616
1,636.613,106577
1,636.537,106650
1,636.461,106517
1,636.385,106366
1,636.309,106490
1,636.233,106699
1,636.157,106657
1,636.081,106596
1,636.006,106880
1,635.93,107209
1,635.854,108134
1,635.778,108861
1,635.702,109536
1,635.626,110055
1,635.55,110291
1,635.475,110630
1,635.399,111005
1,635.323,111186
1,635.247,111741
1,635.171,112540
1,635.095,114284
1,635.019,116087
1,634.943,117063
1,634.868,118732
1,634.792,120567
1,634.716,126251
1,634.64,132971
1,634.564,138963
1,634.488,152668
1,634.412,193967
1,634.336,225343
1,634.261,262202
1,634.185,332507
1,634.109,613018
1,634.033,746246
1,633.957,879490
1,633.881,984509
1,633.805,899753
1,633.729,808522
1,633.654,717283
1,633.578,522780
1,633.502,450632
1,633.426,383846
1,633.35,313653
1,633.274,221090
1,633.198,191433
1,633.123,185139
1,633.047,165889
1,632.971,144401
1,632.895,137514
1,632.819,135455
1,632.743,131279
1,632.667,127559
1,632.591,125949
1,632.516,125114
1,632.44,123208
1,632.364,122495
1,632.288,121679
1,632.212,121083
1,632.136,120391
1,632.06,120121
1,631.984,119789
1,631.909,119222
1,631.833,118845
1,631.757,118208
1,631.681,118250
1,631.605,117723
1,631.529,117155
1,631.453,116721
1,631.377,116048
1,631.302,115280
1,631.226,114783
1,631.15,113969
1,631.074,113540
1,630.998,112969
1,630.922,112110
1,630.846,111670
1,630.771,111025
1,630.695,110668
1,630.619,110191
1,630.543,109673
1,630.467,109229
1,630.391,108511
1,630.315,108136
1,630.239,107827
1,630.164,107240
1,630.088,106762
1,630.012,106479
1,629.936,106245
1,629.86,105824
1,629.784,105569
1,629.708,105401
1,629.632,104981
1,629.557,104733
1,629.481,104433
1,629.405,104245
1,629.329,103921
1,629.253,103522
1,629.177,103426
1,629.101,102928
1,629.025,103067
1,628.95,102697
1,628.874,102464
1,628.798,102328
1,628.722,102381
1,628.646,102152
1,628.57,101881
1,628.494,101813
1,628.419,101554
1,628.343,101354
1,628.267,101394
1,628.191,101059
1,628.115,100996
1,628.039,100706
1,627.963,100687
1,627.887,100552
1,627.812,100283
1,627.736,100223
1,627.66,100157
1,627.584,100140
1,627.508,99850
1,627.432,100040
1,627.356,99766
1,627.28,99678
1,627.205,99685
1,627.129,99475
1,627.053,99414
1,626.977,99196
1,626.901,99062
1,626.825,98923
1,626.749,98816
1,626.674,98935
1,626.598,98962
1,626.522,99015
1,626.446,98743
1,626.37,98634
1,626.294,98392
1,626.218,98630
1,626.142,98629
1,626.067,98498
1,625.991,98455
1,625.915,98395
1,625.839,98169
1,625.763,98396
1,625.687,98134
1,625.611,98131
1,625.535,97957
1,625.46,97943
1,625.384,97812
1,625.308,97673
1,625.232,97872
1,625.156,97499
1,625.08,97518
1,625.004,97461
1,624.928,97497
1,624.853,97501
1,624.777,97178
1,624.701,97077
1,624.625,96930
1,624.549,97104
1,624.473,97076
1,624.397,96824
1,624.322,96762
1,624.246,96898
1,624.17,96548
1,624.094,96417
1,624.018,96226
1,623.942,96117
