1,628.289,337055
1,628.361,338754
1,628.432,340517
1,628.504,343037
1,628.575,344210
1,628.647,346440
1,628.718,348237
1,628.79,350055
1,628.861,352032
1,628.933,354231
1,629.004,355885
1,629.076,357720
1,629.147,359435
1,629.219,361593
1,629.29,363252
1,629.362,364850
1,629.433,366365
1,629.505,368512
1,629.576,370153
1,629.647,372247
1,629.719,374365
1,629.79,376279
1,629.862,378021
1,629.933,379547
1,630.005,381269
1,630.076,383627
1,630.148,385693
1,630.219,387443
1,630.291,388299
1,630.362,390580
1,630.434,392589
1,630.505,393797
1,630.577,395859
1,630.648,397646
1,630.72,399530
1,630.791,400944
1,630.863,402455
1,630.934,403972
1,631.006,406216
1,631.077,407504
1,631.149,409133
1,631.22,411144
1,631.291,412030
1,631.363,414282
1,631.434,414731
1,631.506,416844
1,631.577,417929
1,631.649,419032
1,631.72,420124
1,631.792,421805
1,631.863,422016
1,631.935,422921
1,632.006,424607
1,632.078,425080
1,632.149,425873
1,632.221,427163
1,632.292,428514
1,632.364,429136
1,632.435,429361
1,632.507,431944
1,632.578,432867
1,632.65,434318
1,632.721,435182
1,632.793,436283
1,632.864,437349
1,632.935,438637
1,633.007,440104
1,633.078,440847
1,633.15,443417
1,633.221,443206
1,633.293,444511
1,633.364,445295
1,633.436,446671
1,633.507,447589
1,633.579,448923
1,633.65,448752
1,633.722,450049
1,633.793,450258
1,633.865,451389
1,633.936,452650
1,634.008,452782
1,634.079,453217
1,634.151,454440
1,634.222,455051
1,634.294,455017
1,634.365,456416
1,634.437,456562
1,634.508,457655
1,634.579,458936
1,634.651,458264
1,634.722,459869
1,634.794,460153
1,634.865,459839
1,634.937,460672
1,635.008,461208
1,635.08,461011
1,635.151,460527
1,635.223,462036
1,635.294,461865
1,635.366,462657
1,635.437,462734
1,635.509,463750
1,635.58,463355
1,635.652,464336
1,635.723,464616
1,635.795,465096
1,635.866,465779
1,635.938,464655
1,636.009,464699
1,636.081,465808
1,636.152,466408
1,636.223,466876
1,636.295,466761
1,636.366,467913
1,636.438,467264
1,636.509,467629
1,636.581,468495
1,636.652,468600
1,636.724,468991
1,636.795,469235
1,636.867,469190
1,636.938,469821
1,637.01,470063
1,637.081,469729
1,637.153,470153
1,637.224,470462
1,637.296,470807
1,637.367,471672
1,637.439,471199
1,637.51,471515
1,637.582,472165
1,637.653,472743
1,637.725,473316
1,637.796,473117
1,637.867,473899
1,637.939,475169
1,638.01,474384
1,638.082,474858
1,638.153,476282
1,638.225,475849
1,638.296,476388
1,638.368,477180
1,638.439,477324
1,638.511,477655
1,638.582,477778
1,638.654,478588
1,638.725,479293
1,638.797,479432
1,638.868,479954
1,638.94,480475
1,639.011,481398
1,639.083,481811
1,639.154,482922
1,639.226,482707
1,639.297,483791
1,639.369,483768
1,639.44,483387
1,639.511,484120
1,639.583,483704
1,639.654,484411
1,639.726,485261
1,639.797,485033
1,639.869,484965
1,639.94,486829
1,640.012,487623
1,640.083,487596
1,640.155,488121
1,640.226,488780
1,640.298,488634
1,640.369,490229
1,640.441,489635
1,640.512,491003
1,640.584,491165
1,640.655,492371
1,640.727,492508
1,640.798,493196
1,640.87,493274
1,640.941,494170
1,641.013,495951
1,641.084,496507
1,641.155,497188
1,641.227,498563
1,641.298,499168
1,641.37,499901
1,641.441,501295
1,641.513,502650
1,641.584,504606
1,641.656,505476
1,641.727,506510
1,641.799,509351
1,641.87,511474
1,641.942,513759
1,642.013,517284
1,642.085,520136
1,642.156,525330
1,642.228,531141
1,642.299,538789
1,642.371,548401
1,642.442,562526
1,642.514,585139
1,642.585,625694
1,642.657,718253
1,642.728,917429
1,642.8,1.19611e+006
1,642.871,1.37284e+006
1,642.942,1.41584e+006
1,643.014,1.40616e+006
1,643.085,1.35088e+006
1,643.157,1.20252e+006
1,643.228,948637
1,643.3,731724
1,643.371,656436
1,643.443,653542
1,643.514,681017
1,643.586,736296
1,643.657,848746
1,643.729,1.11297e+006
1,643.8,1.69803e+006
1,643.872,2.54046e+006
1,643.943,3.09173e+006
1,644.015,3.23698e+006
1,644.086,3.19801e+006
1,644.158,3.00719e+006
1,644.229,2.53434e+006
1,644.301,1.73115e+006
1,644.372,1.02323e+006
1,644.444,720768
1,644.515,627858
1,644.586,591729
1,644.658,571865
1,644.729,559409
1,644.801,551478
1,644.872,544390
1,644.944,539871
1,645.015,536224
1,645.087,533357
1,645.158,530519
1,645.23,529142
1,645.301,527661
1,645.373,526092
1,645.444,526297
1,645.516,525808
1,645.587,526018
1,645.659,524764
1,645.73,524096
1,645.802,524297
1,645.873,523285
1,645.945,522221
1,646.016,521143
1,646.088,521022
1,646.159,521875
1,646.23,521180
1,646.302,520926
1,646.373,520798
1,646.445,520776
1,646.516,520412
1,646.588,520295
1,646.659,519712
1,646.731,520962
1,646.802,520380
1,646.874,519802
1,646.945,520369
1,647.017,520665
1,647.088,520095
1,647.16,521278
1,647.231,521339
1,647.303,520913
1,647.374,520640
1,647.446,520777
1,647.517,520926
1,647.589,521579
1,647.66,520573
1,647.732,522038
1,647.803,521983
1,647.874,522217
1,647.946,522588
1,648.017,522436
1,648.089,522510
1,648.16,523136
1,648.232,523242
1,648.303,523785
1,648.375,522675
1,648.446,523392
1,648.518,522820
1,648.589,523148
1,648.661,522184
1,648.732,522778
1,648.804,522674
1,648.875,522389
1,648.947,522816
1,649.018,523473
1,649.09,523387
1,649.161,524155
1,649.233,523356
1,649.304,524086
1,649.376,523257
1,649.447,523361
1,649.518,523288
1,649.59,524653
1,649.661,524236
1,649.733,524265
1,649.804,524280
1,649.876,525010
1,649.947,524404
1,650.019,523931
1,650.09,524907
1,650.162,525098
1,650.233,524149
1,650.305,525227
1,650.376,524776
1,650.448,524533
1,650.519,524619
1,650.591,525384
1,650.662,525834
1,650.734,525749
1,650.805,525721
1,650.877,526287
1,650.948,526099
1,651.02,525743
1,651.091,526742
1,651.162,527447
1,651.234,527162
1,651.305,527171
1,651.377,527274
1,651.448,527268
1,651.52,528065
1,651.591,527696
1,651.663,527632
1,651.734,528142
1,651.806,528243
1,651.877,528483
1,651.949,528317
1,652.02,528353
1,652.092,528098
1,652.163,528590
1,652.235,529293
1,652.306,528579
1,652.378,528691
1,652.449,529320
1,652.521,529576
1,652.592,528762
1,652.664,529532
1,652.735,529574
1,652.806,529934
1,652.878,529931
1,652.949,530140
1,653.021,530444
1,653.092,530201
1,653.164,530038
1,653.235,530389
1,653.307,531252
1,653.378,530301
1,653.45,530840
1,653.521,531234
1,653.593,531608
1,653.664,530904
1,653.736,531703
1,653.807,530782
1,653.879,530847
1,653.95,532280
1,654.022,531972
1,654.093,532723
1,654.165,532435
1,654.236,532612
1,654.308,533556
1,654.379,533050
1,654.45,534692
1,654.522,534375
1,654.593,535272
1,654.665,535424
1,654.736,535148
1,654.808,535754
1,654.879,536289
1,654.951,535781
1,655.022,535941
1,655.094,535582
1,655.165,535857
1,655.237,536425
1,655.308,536186
1,655.38,536260
1,655.451,536233
1,655.523,536344
1,655.594,535912
1,655.666,535011
1,655.737,536292
1,655.809,536460
1,655.88,536372
1,655.952,536805
1,656.023,536972
1,656.094,538383
1,656.166,538448
1,656.237,538697
1,656.309,538734
1,656.38,538925
1,656.452,539106
1,656.523,538464
1,656.595,538835
1,656.666,539013
1,656.738,539101
1,656.809,539432
1,656.881,539420
1,656.952,540342
1,657.024,540600
1,657.095,540276
1,657.167,541314
1,657.238,541111
1,657.31,540743
1,657.381,542134
1,657.453,541601
1,657.524,543145
1,657.596,542552
1,657.667,543301
1,657.738,543614
1,657.81,544183
1,657.881,545022
1,657.953,545290
1,658.024,545874
1,658.096,546466
1,658.167,547284
1,658.239,548270
1,658.31,548585
1,658.382,549557
1,658.453,550621
1,658.525,551796
1,658.596,552527
1,658.668,553931
1,658.739,554516
1,658.811,556210
1,658.882,556968
1,658.954,559111
1,659.025,560315
1,659.097,561507
1,659.168,563377
1,659.24,564009
1,659.311,565914
1,659.382,567919
1,659.454,569584
1,659.525,571734
1,659.597,574568
1,659.668,576825
1,659.74,579518
1,659.811,581709
1,659.883,586117
1,659.954,588812
1,660.026,594556
1,660.097,599456
1,660.169,604333
1,660.24,610645
1,660.312,617100
1,660.383,623760
1,660.455,632200
1,660.526,641136
1,660.598,651595
1,660.669,663574
1,660.741,677469
1,660.812,694613
1,660.884,714818
1,660.955,740212
1,661.026,772862
1,661.098,812032
1,661.169,862363
1,661.241,926369
1,661.312,1.01265e+006
1,661.384,1.12769e+006
1,661.455,1.29315e+006
1,661.527,1.55162e+006
1,661.598,2.00186e+006
1,661.67,2.86895e+006
1,661.741,4.49534e+006
1,661.813,6.4258e+006
1,661.884,6.50158e+006
1,661.956,6.5535e+006
1,662.027,6.5535e+006
1,662.099,6.5535e+006
1,662.17,6.51393e+006
1,662.242,6.08604e+006
1,662.313,4.18724e+006
1,662.385,2.51806e+006
1,662.456,1.5981e+006
1,662.528,1.14779e+006
1,662.599,949969
1,662.67,850629
1,662.742,787327
1,662.813,744182
1,662.885,712591
1,662.956,688490
1,663.028,668973
1,663.099,654302
1,663.171,643981
1,663.242,633411
1,663.314,625747
1,663.385,619500
1,663.457,616087
1,663.528,615315
1,663.6,619669
1,663.671,629201
1,663.743,639533
1,663.814,645309
1,663.886,645365
1,663.957,639921
1,664.029,626727
1,664.1,609347
1,664.172,592865
1,664.243,580931
1,664.315,571234
1,664.386,566477
1,664.457,563274
1,664.529,560724
1,664.6,557712
1,664.672,555901
1,664.743,553500
1,664.815,552104
1,664.886,550078
1,664.958,548352
1,665.029,546788
1,665.101,545620
1,665.172,544349
1,665.244,542319
1,665.315,541196
1,665.387,539994
1,665.458,539476
1,665.53,537999
1,665.601,537456
1,665.673,535728
1,665.744,534851
1,665.816,534376
1,665.887,533573
1,665.959,532510
1,666.03,532023
1,666.101,531612
1,666.173,531425
1,666.244,530722
1,666.316,530081
1,666.387,528552
1,666.459,527284
1,666.53,526698
1,666.602,526403
1,666.673,525893
1,666.745,524732
1,666.816,524990
1,666.888,523518
1,666.959,522902
1,667.031,522134
1,667.102,521964
1,667.174,521361
1,667.245,521438
1,667.317,521458
1,667.388,521173
1,667.46,520801
1,667.531,520260
1,667.603,518950
1,667.674,518955
1,667.745,517731
1,667.817,516849
1,667.888,516566
1,667.96,515662
1,668.031,515172
1,668.103,514173
1,668.174,514468
1,668.246,514575
1,668.317,513721
1,668.389,512533
1,668.46,512971
1,668.532,512914
1,668.603,512526
1,668.675,512598
1,668.746,512296
1,668.818,512222
1,668.889,511128
1,668.961,511432
1,669.032,511096
1,669.104,511035
1,669.175,511124
1,669.247,510975
1,669.318,510516
1,669.389,510663
1,669.461,509365
1,669.532,509590
1,669.604,509325
1,669.675,508345
1,669.747,507842
1,669.818,507623
1,669.89,506906
1,669.961,506534
1,670.033,505808
1,670.104,505694
1,670.176,504800
1,670.247,504889
1,670.319,504702
1,670.39,503801
1,670.462,503678
1,670.533,504067
1,670.605,502682
1,670.676,503555
1,670.748,502830
1,670.819,501703
1,670.891,501554
1,670.962,500401
1,671.033,501330
1,671.105,500618
1,671.176,500385
1,671.248,500448
1,671.319,499540
1,671.391,499467
1,671.462,499558
1,671.534,498655
1,671.605,498783
1,671.677,497797
1,671.748,498271
1,671.82,497524
1,671.891,497021
1,671.963,496724
1,672.034,496071
1,672.106,496404
1,672.177,496386
1,672.249,495435
1,672.32,495180
1,672.392,495347
1,672.463,494555
1,672.535,494359
1,672.606,493834
1,672.677,493107
1,672.749,493499
1,672.82,493334
1,672.892,493130
1,672.963,492994
1,673.035,492766
1,673.106,491991
1,673.178,492051
1,673.249,491420
1,673.321,491030
1,673.392,491604
1,673.464,490639
1,673.535,490534
1,673.607,489703
1,673.678,489857
1,673.75,490531
1,673.821,489725
1,673.893,489461
1,673.964,488988
1,674.036,488396
1,674.107,487914
1,674.179,488283
1,674.25,488452
1,674.321,487807
1,674.393,487814
1,674.464,487183
1,674.536,487758
1,674.607,489827
1,674.679,489990
1,674.75,489777
1,674.822,490518
1,674.893,490403
1,674.965,490132
1,675.036,490442
1,675.108,490420
1,675.179,488490
1,675.251,489482
1,675.322,489143
1,675.394,489086
1,675.465,489137
1,675.537,489866
1,675.608,491465
1,675.68,492147
1,675.751,491959
1,675.823,491127
1,675.894,489633
1,675.965,486252
1,676.037,483649
1,676.108,481475
1,676.18,478601
1,676.251,477018
1,676.323,475497
1,676.394,474504
1,676.466,474493
1,676.537,473895
1,676.609,473437
1,676.68,473139
1,676.752,473041
1,676.823,473053
1,676.895,472491
1,676.966,471299
1,677.038,471857
1,677.109,471381
1,677.181,470830
1,677.252,470491
1,677.324,469437
1,677.395,469754
1,677.467,468710
1,677.538,468627
1,677.609,467866
1,677.681,467436
1,677.752,467866
1,677.824,467130
1,677.895,465864
1,677.967,466090
1,678.038,466106
1,678.11,464934
1,678.181,464757
1,678.253,465174
1,678.324,464917
1,678.396,464757
1,678.467,463675
1,678.539,464416
1,678.61,464357
1,678.682,463350
1,678.753,463664
1,678.825,463285
1,678.896,462800
1,678.968,462893
1,679.039,463241
1,679.111,463590
1,679.182,462995
1,679.253,463389
1,679.325,463456
1,679.396,464829
1,679.468,464933
1,679.539,466486
1,679.611,468044
1,679.682,470734
1,679.754,474627
1,679.825,481569
1,679.897,498821
1,679.968,542089
1,680.04,641068
1,680.111,808476
1,680.183,1.01206e+006
1,680.254,1.19898e+006
1,680.326,1.32258e+006
1,680.397,1.35787e+006
1,680.469,1.27968e+006
1,680.54,1.10904e+006
1,680.612,909395
1,680.683,740952
1,680.755,611860
1,680.826,527222
1,680.897,488103
1,680.969,472098
1,681.04,466184
1,681.112,462074
1,681.183,458946
1,681.255,457172
1,681.326,454911
1,681.398,453613
1,681.469,452582
1,681.541,451202
1,681.612,450155
1,681.684,449412
1,681.755,448152
1,681.827,447470
1,681.898,446765
1,681.97,446106
1,682.041,446050
1,682.113,445596
1,682.184,445021
1,682.256,443835
1,682.327,443691
1,682.399,442484
1,682.47,441693
1,682.541,440949
1,682.613,440078
1,682.684,439753
1,682.756,439937
1,682.827,439349
1,682.899,438428
1,682.97,438115
1,683.042,437396
1,683.113,436422
1,683.185,436761
1,683.256,436092
1,683.328,435052
1,683.399,434899
1,683.471,433982
1,683.542,433410
1,683.614,432493
1,683.685,432529
1,683.757,432363
1,683.828,431643
1,683.9,431505
1,683.971,431010
1,684.043,431106
1,684.114,429837
1,684.185,429836
1,684.257,429368
1,684.328,428829
1,684.4,428200
1,684.471,428161
1,684.543,426904
1,684.614,426288
1,684.686,425592
1,684.757,425686
1,684.829,425531
1,684.9,424398
1,684.972,424029
1,685.043,423916
1,685.115,423174
1,685.186,422189
1,685.258,422582
1,685.329,421488
1,685.401,420820
1,685.472,420761
1,685.544,419906
1,685.615,420032
1,685.687,419829
1,685.758,419487
1,685.83,418910
1,685.901,418867
1,685.972,417561
1,686.044,417685
1,686.115,418035
1,686.187,417591
1,686.258,417825
1,686.33,417069
1,686.401,416760
1,686.473,416702
1,686.544,415619
1,686.616,416071
1,686.687,414963
1,686.759,413901
1,686.83,414055
1,686.902,413027
1,686.973,412231
1,687.045,412008
1,687.116,411030
1,687.188,410798
1,687.259,410379
1,687.331,409468
1,687.402,409394
1,687.474,409023
1,687.545,408516
1,687.616,407658
1,687.688,407536
1,687.759,406527
1,687.831,406416
1,687.902,405975
1,687.974,405567
1,688.045,404871
1,688.117,404685
1,688.188,404025
1,688.26,403244
1,688.331,403388
1,688.403,402267
1,688.474,401932
1,688.546,401537
1,688.617,401461
1,688.689,401129
1,688.76,399883
1,688.832,398915
1,688.903,399456
1,688.975,398589
1,689.046,397822
1,689.118,397201
1,689.189,397095
1,689.26,396764
1,689.332,395554
1,689.403,396053
1,689.475,396031
1,689.546,395014
1,689.618,394827
1,689.689,394131
1,689.761,393765
1,689.832,393805
1,689.904,393598
1,689.975,393079
1,690.047,392492
1,690.118,391884
1,690.19,391180
1,690.261,391206
1,690.333,390671
1,690.404,390055
1,690.476,389447
1,690.547,389414
1,690.619,388451
1,690.69,387848
1,690.762,387953
1,690.833,387133
1,690.904,386891
1,690.976,386611
1,691.047,386392
1,691.119,385527
1,691.19,384707
1,691.262,384930
1,691.333,384601
1,691.405,383828
1,691.476,383667
1,691.548,382960
1,691.619,382117
1,691.691,381743
1,691.762,381609
1,691.834,381066
1,691.905,380483
1,691.977,380269
1,692.048,379747
1,692.12,379608
1,692.191,379153
1,692.263,378946
1,692.334,378766
1,692.406,377740
1,692.477,378018
1,692.548,376860
1,692.62,376597
1,692.691,375955
1,692.763,375767
1,692.834,375504
1,692.906,374408
1,692.977,374545
1,693.049,374064
1,693.12,373089
1,693.192,372928
1,693.263,372361
1,693.335,371925
1,693.406,371231
1,693.478,370982
1,693.549,370600
1,693.621,369530
1,693.692,369513
1,693.764,369498
1,693.835,368988
1,693.907,368189
1,693.978,367678
1,694.05,366758
1,694.121,366676
1,694.192,365699
1,694.264,365930
1,694.335,365719
1,694.407,365140
1,694.478,364548
1,694.55,363600
1,694.621,363398
1,694.693,363437
1,694.764,362955
1,694.836,362792
1,694.907,362230
1,694.979,361358
1,695.05,361266
1,695.122,361186
1,695.193,360397
1,695.265,359785
1,695.336,359305
1,695.408,359121
1,695.479,358280
1,695.551,357646
1,695.622,357178
1,695.694,357425
1,695.765,356430
1,695.836,356358
1,695.908,355768
1,695.979,355087
1,696.051,354757
1,696.122,354638
1,696.194,353679
1,696.265,353367
1,696.337,352651
1,696.408,352805
1,696.48,352254
1,696.551,351729
1,696.623,351964
1,696.694,351428
1,696.766,351185
1,696.837,350335
1,696.909,350255
1,696.98,349913
1,697.052,349428
1,697.123,348407
1,697.195,348303
1,697.266,347786
1,697.338,347313
1,697.409,347307
1,697.48,346187
1,697.552,346423
1,697.623,345266
1,697.695,345349
1,697.766,344893
1,697.838,343699
1,697.909,344349
1,697.981,343512
1,698.052,343309
1,698.124,342339
1,698.195,342066
1,698.267,341388
1,698.338,341012
1,698.41,340619
1,698.481,340611
1,698.553,340415
1,698.624,339509
1,698.696,339020
1,698.767,338721
1,698.839,338278
1,698.91,337997
1,698.982,336495
1,699.053,336689
1,699.124,336311
1,699.196,336123
1,699.267,335149
1,699.339,334706
1,699.41,334929
1,699.482,333858
1,699.553,333028
1,699.625,333024
1,699.696,332472
1,699.768,331181
1,699.839,331003
1,699.911,330232
1,699.982,329359
1,700.054,329010
1,700.125,328153
1,700.197,327850
1,700.268,327785
1,700.34,327178
1,700.411,326506
1,700.483,325410
1,700.554,324505
1,700.626,323334
1,700.697,322428
1,700.768,322039
1,700.84,321672
1,700.911,321081
1,700.983,320553
1,701.054,320377
1,701.126,318849
1,701.197,318024
1,701.269,316585
1,701.34,315841
1,701.412,314663
1,701.483,313929
1,701.555,312977
1,701.626,311999
1,701.698,311511
1,701.769,311216
1,701.841,309576
1,701.912,308864
1,701.984,307229
1,702.055,305724
1,702.127,304378
1,702.198,303958
1,702.27,303051
1,702.341,302325
1,702.412,300928
1,702.484,299979
1,702.555,298804
1,702.627,296683
1,702.698,295231
1,702.77,292689
1,702.841,290723
1,702.913,289503
1,702.984,288583
1,703.056,287375
1,703.127,286173
1,703.199,284693
1,703.27,283115
1,703.342,280619
1,703.413,279203
1,703.485,275796
1,703.556,273816
1,703.628,271810
1,703.699,270003
1,703.771,267749
1,703.842,266914
1,703.914,265289
1,703.985,264093
1,704.056,260544
1,704.128,257725
1,704.199,253971
1,704.271,251177
1,704.342,248217
1,704.414,246638
1,704.485,245108
1,704.557,243764
1,704.628,241527
1,704.7,240338
1,704.771,237429
1,704.843,234505
1,704.914,230036
1,704.986,226732
1,705.057,223455
1,705.129,221077
1,705.2,219647
1,705.272,217497
1,705.343,215648
1,705.415,213662
1,705.486,210382
1,705.558,206395
1,705.629,201616
1,705.701,196932
1,705.772,192613
1,705.843,189152
1,705.915,186333
1,705.986,182702
1,706.058,179401
1,706.129,175759
1,706.201,171029
1,706.272,165950
1,706.344,159930
1,706.415,153818
1,706.487,148411
1,706.558,143487
1,706.63,138769
1,706.701,134494
1,706.773,130207
1,706.844,125867
1,706.916,121346
1,706.987,116792
1,707.059,112111
1,707.13,107771
1,707.202,103374
1,707.273,99970
1,707.345,96837
1,707.416,93729
1,707.487,91183
1,707.559,88720
1,707.63,86202
1,707.702,83948
1,707.773,81835
1,707.845,80256
1,707.916,78919
1,707.988,77741
1,708.059,76870
1,708.131,76095
1,708.202,75597
1,708.274,74907
1,708.345,74429
1,708.417,74118
1,708.488,73956
1,708.56,73681
1,708.631,73584
1,708.703,73351
1,708.774,73297
1,708.846,73311
1,708.917,73215
1,708.989,73260
1,709.06,73155
1,709.131,73054
1,709.203,73142
1,709.274,73064
1,709.346,72900
1,709.417,73044
1,709.489,72903
1,709.56,72953
1,709.632,72969
1,709.703,72882
1,709.775,72929
1,709.846,72809
1,709.918,72772
1,709.989,72686
1,710.061,72654
1,710.132,72596
1,710.204,72556
1,710.275,72575
1,710.347,72424
1,710.418,72397
1,710.49,72318
1,710.561,72369
1,710.633,72192
1,710.704,72133
1,710.775,72090
1,710.847,72126
1,710.918,72018
1,710.99,72111
1,711.061,71999
1,711.133,72016
1,711.204,71953
1,711.276,72109
1,711.347,72056
1,711.419,71994
1,711.49,71948
1,711.562,71941
1,711.633,72012
1,711.705,71959
1,711.776,72019
1,711.848,71954
1,711.919,71901
1,711.991,71956
1,712.062,71944
1,712.134,71965
1,712.205,71989
1,712.277,71995
1,712.348,72060
1,712.419,71888
1,712.491,72020
1,712.562,72026
1,712.634,71902
1,712.705,71965
1,712.777,72056
1,712.848,72018
1,712.92,72089
1,712.991,72076
1,713.063,72044
1,713.134,72068
1,713.206,72096
1,713.277,72163
1,713.349,72227
1,713.42,72150
1,713.492,72336
1,713.563,72403
1,713.635,72412
1,713.706,72657
1,713.778,72675
1,713.849,72823
1,713.921,73153
1,713.992,73537
1,714.063,73894
1,714.135,74318
1,714.206,74926
1,714.278,75585
1,714.349,76374
1,714.421,77337
1,714.492,78340
1,714.564,79521
1,714.635,80965
1,714.707,82495
1,714.778,84344
1,714.85,86218
1,714.921,88592
1,714.993,91312
1,715.064,93913
1,715.136,97053
1,715.207,100350
1,715.279,103611
1,715.35,107721
1,715.422,111567
1,715.493,115824
1,715.565,120371
1,715.636,124918
1,715.707,129461
1,715.779,134570
1,715.85,139396
1,715.922,144476
1,715.993,149743
1,716.065,154834
1,716.136,160918
1,716.208,165961
1,716.279,171107
1,716.351,176540
1,716.422,181670
1,716.494,186029
1,716.565,189371
1,716.637,192911
1,716.708,195738
1,716.78,198543
1,716.851,199466
1,716.923,201305
1,716.994,201623
1,717.066,202042
1,717.137,202857
1,717.209,202925
1,717.28,203098
1,717.351,202942
1,717.423,203039
1,717.494,202943
1,717.566,202680
1,717.637,202640
1,717.709,202320
1,717.78,202002
1,717.852,201609
1,717.923,201435
1,717.995,200612
1,718.066,200272
1,718.138,200090
1,718.209,199886
1,718.281,199339
1,718.352,199186
1,718.424,198541
1,718.495,198341
1,718.567,198296
1,718.638,197742
1,718.71,197182
1,718.781,196863
1,718.853,196492
1,718.924,196034
1,718.995,195599
1,719.067,194995
1,719.138,194848
1,719.21,193746
1,719.281,193730
1,719.353,192857
1,719.424,192797
1,719.496,192525
1,719.567,191940
1,719.639,191448
1,719.71,191012
1,719.782,190368
1,719.853,190283
1,719.925,189743
1,719.996,189144
1,720.068,188543
1,720.139,188129
1,720.211,187629
1,720.282,187484
1,720.354,187037
1,720.425,186803
1,720.497,186406
1,720.568,186081
1,720.639,185597
1,720.711,185209
1,720.782,184995
1,720.854,184394
1,720.925,183861
1,720.997,183875
1,721.068,183531
1,721.14,182900
1,721.211,182722
1,721.283,182395
1,721.354,181937
1,721.426,181643
1,721.497,181909
1,721.569,181088
1,721.64,181413
1,721.712,181405
1,721.783,181893
1,721.855,182360
1,721.926,182974
1,721.998,184924
1,722.069,186399
1,722.141,189233
1,722.212,193583
1,722.283,200996
1,722.355,214871
1,722.426,246690
1,722.498,305157
1,722.569,367162
1,722.641,416706
1,722.712,452799
1,722.784,461783
1,722.855,435042
1,722.927,392557
1,722.998,345908
1,723.07,300927
1,723.141,260288
1,723.213,226802
1,723.284,202549
1,723.356,188633
1,723.427,180740
1,723.499,175239
1,723.57,171722
1,723.642,168584
1,723.713,166134
1,723.785,164350
1,723.856,162400
1,723.927,161360
1,723.999,159412
