1,725.533,104607
1,725.457,104350
1,725.381,104629
1,725.306,105056
1,725.23,105195
1,725.154,105602
1,725.078,105771
1,725.002,106125
1,724.926,106386
1,724.85,106587
1,724.774,106684
1,724.699,106993
1,724.623,107477
1,724.547,107594
1,724.471,107818
1,724.395,108070
1,724.319,108335
1,724.243,108482
1,724.167,108595
1,724.092,108835
1,724.016,109268
1,723.94,109265
1,723.864,109372
1,723.788,109723
1,723.712,110109
1,723.636,110138
1,723.56,110249
1,723.485,110508
1,723.409,110848
1,723.333,110650
1,723.257,111065
1,723.181,111090
1,723.105,111473
1,723.029,111637
1,722.954,111912
1,722.878,111878
1,722.802,112176
1,722.726,112148
1,722.65,112349
1,722.574,112501
1,722.498,112937
1,722.422,112820
1,722.347,113021
1,722.271,113054
1,722.195,113385
1,722.119,113362
1,722.043,113537
1,721.967,113486
1,721.891,113397
1,721.815,113664
1,721.74,114022
1,721.664,113806
1,721.588,113981
1,721.512,113769
1,721.436,114358
1,721.36,114283
1,721.284,114149
1,721.209,114715
1,721.133,114635
1,721.057,114726
1,720.981,114825
1,720.905,114911
1,720.829,114961
1,720.753,114917
1,720.677,115151
1,720.602,115285
1,720.526,115418
1,720.45,115392
1,720.374,115339
1,720.298,115645
1,720.222,115872
1,720.146,115630
1,720.07,115941
1,719.995,115783
1,719.919,116063
1,719.843,116140
1,719.767,115999
1,719.691,116125
1,719.615,116495
1,719.539,116203
1,719.463,116552
1,719.388,116734
1,719.312,116471
1,719.236,116776
1,719.16,116580
1,719.084,116905
1,719.008,117119
1,718.932,116935
1,718.857,116838
1,718.781,117107
1,718.705,117055
1,718.629,117058
1,718.553,117309
1,718.477,117388
1,718.401,117612
1,718.325,117208
1,718.25,117230
1,718.174,117340
1,718.098,117580
1,718.022,117585
1,717.946,117607
1,717.87,117667
1,717.794,117726
1,717.718,117528
1,717.643,117778
1,717.567,117725
1,717.491,117814
1,717.415,117862
1,717.339,118033
1,717.263,117793
1,717.187,117814
1,717.111,117950
1,717.036,118203
1,716.96,118224
1,716.884,118097
1,716.808,118387
1,716.732,118197
1,716.656,118398
1,716.58,118328
1,716.505,118169
1,716.429,118314
1,716.353,118435
1,716.277,118440
1,716.201,118497
1,716.125,118563
1,716.049,118522
1,715.973,118636
1,715.898,118584
1,715.822,118522
1,715.746,118362
1,715.67,118742
1,715.594,118442
1,715.518,118529
1,715.442,118489
1,715.366,118722
1,715.291,118716
1,715.215,118835
1,715.139,118930
1,715.063,119134
1,714.987,118886
1,714.911,118839
1,714.835,118878
1,714.759,118935
1,714.684,119045
1,714.608,119100
1,714.532,118992
1,714.456,119214
1,714.38,119147
1,714.304,119136
1,714.228,119347
1,714.153,119429
1,714.077,119363
1,714.001,119524
1,713.925,119324
1,713.849,119186
1,713.773,119479
1,713.697,119524
1,713.621,119639
1,713.546,119625
1,713.47,119583
1,713.394,119329
1,713.318,119732
1,713.242,119819
1,713.166,119677
1,713.09,119626
1,713.014,119408
1,712.939,119953
1,712.863,119973
1,712.787,120036
1,712.711,119923
1,712.635,120008
1,712.559,120106
1,712.483,120140
1,712.407,120027
1,712.332,119956
1,712.256,120316
1,712.18,120095
1,712.104,120307
1,712.028,120190
1,711.952,120250
1,711.876,120222
1,711.801,120478
1,711.725,120513
1,711.649,120672
1,711.573,120459
1,711.497,120570
1,711.421,120672
1,711.345,120773
1,711.269,120714
1,711.194,120821
1,711.118,120913
1,711.042,121039
1,710.966,120839
1,710.89,121051
1,710.814,121158
1,710.738,121147
1,710.662,121326
1,710.587,121289
1,710.511,121357
1,710.435,121149
1,710.359,121298
1,710.283,121494
1,710.207,121278
1,710.131,121774
1,710.055,121618
1,709.98,121830
1,709.904,121765
1,709.828,121625
1,709.752,121966
1,709.676,122049
1,709.6,122047
1,709.524,122008
1,709.449,122023
1,709.373,122038
1,709.297,122333
1,709.221,122219
1,709.145,122258
1,709.069,122379
1,708.993,122410
1,708.917,122242
1,708.842,122433
1,708.766,122359
1,708.69,122636
1,708.614,122380
1,708.538,122528
1,708.462,122796
1,708.386,122642
1,708.31,122828
1,708.235,122736
1,708.159,122817
1,708.083,122878
1,708.007,122754
1,707.931,122679
1,707.855,123193
1,707.779,122820
1,707.704,122950
1,707.628,122969
1,707.552,123283
1,707.476,122979
1,707.4,123181
1,707.324,123136
1,707.248,123319
1,707.172,123249
1,707.097,123592
1,707.021,123320
1,706.945,123656
1,706.869,123420
1,706.793,123531
1,706.717,123657
1,706.641,123658
1,706.565,123772
1,706.49,123632
1,706.414,123646
1,706.338,123781
1,706.262,123687
1,706.186,123762
1,706.11,124002
1,706.034,123982
1,705.958,123954
1,705.883,124058
1,705.807,124127
1,705.731,123875
1,705.655,124269
1,705.579,124172
1,705.503,124151
1,705.427,124186
1,705.352,124273
1,705.276,124464
1,705.2,124404
1,705.124,124365
1,705.048,124575
1,704.972,124725
1,704.896,124649
1,704.82,124612
1,704.745,124610
1,704.669,124570
1,704.593,124477
1,704.517,124601
1,704.441,124600
1,704.365,124598
1,704.289,124614
1,704.213,124451
1,704.138,124498
1,704.062,124709
1,703.986,124828
1,703.91,124884
1,703.834,124816
1,703.758,124891
1,703.682,124845
1,703.606,124761
1,703.531,124805
1,703.455,124992
1,703.379,124799
1,703.303,124591
1,703.227,125063
1,703.151,124961
1,703.075,125161
1,703,124935
1,702.924,124941
1,702.848,125145
1,702.772,124883
1,702.696,125156
1,702.62,125242
1,702.544,125124
1,702.468,125313
1,702.393,125360
1,702.317,125327
1,702.241,125502
1,702.165,125673
1,702.089,125427
1,702.013,125412
1,701.937,125476
1,701.861,125715
1,701.786,125424
1,701.71,125610
1,701.634,125485
1,701.558,125580
1,701.482,125651
1,701.406,125750
1,701.33,125762
1,701.254,125905
1,701.179,125810
1,701.103,125863
1,701.027,126127
1,700.951,125959
1,700.875,125980
1,700.799,126157
1,700.723,126175
1,700.648,126418
1,700.572,126121
1,700.496,126269
1,700.42,126632
1,700.344,126427
1,700.268,126432
1,700.192,126507
1,700.116,126634
1,700.041,126873
1,699.965,126738
1,699.889,126793
1,699.813,127161
1,699.737,126999
1,699.661,127244
1,699.585,127221
1,699.509,127246
1,699.434,127221
1,699.358,127385
1,699.282,127385
1,699.206,127524
1,699.13,127960
1,699.054,127815
1,698.978,127951
1,698.902,127966
1,698.827,128215
1,698.751,128333
1,698.675,128468
1,698.599,128622
1,698.523,128672
1,698.447,129195
1,698.371,129278
1,698.296,129801
1,698.22,129842
1,698.144,130365
1,698.068,130208
1,697.992,130943
1,697.916,131002
1,697.84,130901
1,697.764,130948
1,697.689,130995
1,697.613,131282
1,697.537,131206
1,697.461,131108
1,697.385,131126
1,697.309,130990
1,697.233,130966
1,697.157,131237
1,697.082,131775
1,697.006,131687
1,696.93,132089
1,696.854,132580
1,696.778,133390
1,696.702,134251
1,696.626,135107
1,696.55,136045
1,696.475,136930
1,696.399,137694
1,696.323,138408
1,696.247,138499
1,696.171,138530
1,696.095,137796
1,696.019,137253
1,695.944,136516
1,695.868,135722
1,695.792,134730
1,695.716,134376
1,695.64,133727
1,695.564,133220
1,695.488,133104
1,695.412,132475
1,695.337,132082
1,695.261,132142
1,695.185,132140
1,695.109,131767
1,695.033,131681
1,694.957,131627
1,694.881,131524
1,694.805,131316
1,694.73,131183
1,694.654,131471
1,694.578,131426
1,694.502,131457
1,694.426,131130
1,694.35,131479
1,694.274,131375
1,694.199,131086
1,694.123,131000
1,694.047,131268
1,693.971,131119
1,693.895,131050
1,693.819,130830
1,693.743,131034
1,693.667,130931
1,693.592,131079
1,693.516,131156
1,693.44,131138
1,693.364,131260
1,693.288,131047
1,693.212,131055
1,693.136,131328
1,693.06,131088
1,692.985,131330
1,692.909,131152
1,692.833,131196
1,692.757,131394
1,692.681,131257
1,692.605,131300
1,692.529,131271
1,692.453,131442
1,692.378,131294
1,692.302,131596
1,692.226,131285
1,692.15,131177
1,692.074,131279
1,691.998,131428
1,691.922,130992
1,691.847,131174
1,691.771,131126
1,691.695,131351
1,691.619,131447
1,691.543,131607
1,691.467,131467
1,691.391,131513
1,691.315,131566
1,691.24,131288
1,691.164,131893
1,691.088,131619
1,691.012,131453
1,690.936,131608
1,690.86,131604
1,690.784,131739
1,690.708,131874
1,690.633,131684
1,690.557,131630
1,690.481,131664
1,690.405,131675
1,690.329,131858
1,690.253,131911
1,690.177,131789
1,690.101,131960
1,690.026,132042
1,689.95,132047
1,689.874,132382
1,689.798,132296
1,689.722,132406
1,689.646,132364
1,689.57,132471
1,689.495,132567
1,689.419,132316
1,689.343,132231
1,689.267,132446
1,689.191,132709
1,689.115,132419
1,689.039,132739
1,688.963,132594
1,688.888,132889
1,688.812,132749
1,688.736,132698
1,688.66,132617
1,688.584,133066
1,688.508,132770
1,688.432,132987
1,688.356,132918
1,688.281,133022
1,688.205,133566
1,688.129,133323
1,688.053,133315
1,687.977,133925
1,687.901,133656
1,687.825,134063
1,687.749,134254
1,687.674,134560
1,687.598,134845
1,687.522,134946
1,687.446,135252
1,687.37,135470
1,687.294,135667
1,687.218,135648
1,687.143,135610
1,687.067,135453
1,686.991,135110
1,686.915,134852
1,686.839,134693
1,686.763,134398
1,686.687,134543
1,686.611,134126
1,686.536,134022
1,686.46,133676
1,686.384,133714
1,686.308,133492
1,686.232,133616
1,686.156,133410
1,686.08,133192
1,686.004,133327
1,685.929,133293
1,685.853,133206
1,685.777,133297
1,685.701,133309
1,685.625,132879
1,685.549,132911
1,685.473,132826
1,685.397,132925
1,685.322,132854
1,685.246,132856
1,685.17,132905
1,685.094,132779
1,685.018,132651
1,684.942,132762
1,684.866,132840
1,684.791,132908
1,684.715,132636
1,684.639,132716
1,684.563,132857
1,684.487,132574
1,684.411,132714
1,684.335,132554
1,684.259,132696
1,684.184,132481
1,684.108,132337
1,684.032,132512
1,683.956,132556
1,683.88,132664
1,683.804,132291
1,683.728,132313
1,683.652,132129
1,683.577,132290
1,683.501,132368
1,683.425,132379
1,683.349,132270
1,683.273,132260
1,683.197,132480
1,683.121,131980
1,683.045,132305
1,682.97,132090
1,682.894,132193
1,682.818,131892
1,682.742,132345
1,682.666,132261
1,682.59,132085
1,682.514,132116
1,682.439,132154
1,682.363,132107
1,682.287,131863
1,682.211,132164
1,682.135,132126
1,682.059,132031
1,681.983,132100
1,681.907,131833
1,681.832,132137
1,681.756,131915
1,681.68,131882
1,681.604,132276
1,681.528,131968
1,681.452,132187
1,681.376,132114
1,681.3,131880
1,681.225,132097
1,681.149,132209
1,681.073,132138
1,680.997,132197
1,680.921,132413
1,680.845,132064
1,680.769,132374
1,680.694,132095
1,680.618,132202
1,680.542,132099
1,680.466,132233
1,680.39,132329
1,680.314,132501
1,680.238,132481
1,680.162,132564
1,680.087,132279
1,680.011,132412
1,679.935,132597
1,679.859,132921
1,679.783,132609
1,679.707,132908
1,679.631,132863
1,679.555,132918
1,679.48,132907
1,679.404,132947
1,679.328,132918
1,679.252,133097
1,679.176,132732
1,679.1,132925
1,679.024,133228
1,678.948,133510
1,678.873,133282
1,678.797,133771
1,678.721,134149
1,678.645,134665
1,678.569,135247
1,678.493,135778
1,678.417,136475
1,678.342,136916
1,678.266,137304
1,678.19,137585
1,678.114,137934
1,678.038,137952
1,677.962,137833
1,677.886,137188
1,677.81,136844
1,677.735,136492
1,677.659,135629
1,677.583,135586
1,677.507,134984
1,677.431,134407
1,677.355,133983
1,677.279,133648
1,677.203,133372
1,677.128,133135
1,677.052,133169
1,676.976,132845
1,676.9,133427
1,676.824,133345
1,676.748,133809
1,676.672,134164
1,676.596,134541
1,676.521,134682
1,676.445,134874
1,676.369,135451
1,676.293,135634
1,676.217,135750
1,676.141,135401
1,676.065,135126
1,675.99,134615
1,675.914,134052
1,675.838,133391
1,675.762,132645
1,675.686,132130
1,675.61,131679
1,675.534,131287
1,675.458,130765
1,675.383,130645
1,675.307,130131
1,675.231,129903
1,675.155,129778
1,675.079,129769
1,675.003,129431
1,674.927,129512
1,674.851,128989
1,674.776,129191
1,674.7,129115
1,674.624,128675
1,674.548,128727
1,674.472,128531
1,674.396,128657
1,674.32,128771
1,674.244,128598
1,674.169,128471
1,674.093,128766
1,674.017,128298
1,673.941,128127
1,673.865,128161
1,673.789,127832
1,673.713,128191
1,673.638,128246
1,673.562,127896
1,673.486,128028
1,673.41,127662
1,673.334,127723
1,673.258,127657
1,673.182,127498
1,673.106,127448
1,673.031,127580
1,672.955,127374
1,672.879,127438
1,672.803,127236
1,672.727,127342
1,672.651,127241
1,672.575,127150
1,672.499,127190
1,672.424,127069
1,672.348,127074
1,672.272,127033
1,672.196,127083
1,672.12,126779
1,672.044,126527
1,671.968,127110
1,671.892,126811
1,671.817,126840
1,671.741,126369
1,671.665,126453
1,671.589,126673
1,671.513,126578
1,671.437,126597
1,671.361,126849
1,671.286,126326
1,671.21,126689
1,671.134,126315
1,671.058,126100
1,670.982,126277
1,670.906,126150
1,670.83,125960
1,670.754,126141
1,670.679,126132
1,670.603,126040
1,670.527,126141
1,670.451,126251
1,670.375,126190
1,670.299,126316
1,670.223,126087
1,670.147,126306
1,670.072,126272
1,669.996,126304
1,669.92,126155
1,669.844,126416
1,669.768,126641
1,669.692,126636
1,669.616,126989
1,669.54,127603
1,669.465,127730
1,669.389,128768
1,669.313,129806
1,669.237,131579
1,669.161,133383
1,669.085,135665
1,669.009,138255
1,668.934,141021
1,668.858,143342
1,668.782,144966
1,668.706,145443
1,668.63,145313
1,668.554,144255
1,668.478,141666
1,668.402,139383
1,668.327,136496
1,668.251,133981
1,668.175,131939
1,668.099,129670
1,668.023,128465
1,667.947,127563
1,667.871,126684
1,667.795,126043
1,667.72,125615
1,667.644,125397
1,667.568,125213
1,667.492,124771
1,667.416,124369
1,667.34,124513
1,667.264,124193
1,667.189,124419
1,667.113,124196
1,667.037,123884
1,666.961,123967
1,666.885,123665
1,666.809,123728
1,666.733,123659
1,666.657,123644
1,666.582,123458
1,666.506,123679
1,666.43,123366
1,666.354,123329
1,666.278,123578
1,666.202,123361
1,666.126,123125
1,666.05,123151
1,665.975,123140
1,665.899,123215
1,665.823,122864
1,665.747,122812
1,665.671,122783
1,665.595,122945
1,665.519,122980
1,665.443,122822
1,665.368,122818
1,665.292,122664
1,665.216,122386
1,665.14,122421
1,665.064,122284
1,664.988,122368
1,664.912,122463
1,664.837,122218
1,664.761,122473
1,664.685,122264
1,664.609,122198
1,664.533,122250
1,664.457,121955
1,664.381,121824
1,664.305,121990
1,664.23,122032
1,664.154,122096
1,664.078,121830
1,664.002,122206
1,663.926,121958
1,663.85,121825
1,663.774,121886
1,663.698,121763
1,663.623,121811
1,663.547,121718
1,663.471,121470
1,663.395,121748
1,663.319,121670
1,663.243,121614
1,663.167,121587
1,663.091,121684
1,663.016,121480
1,662.94,121521
1,662.864,121457
1,662.788,121473
1,662.712,121482
1,662.636,121370
1,662.56,121269
1,662.485,121156
1,662.409,121133
1,662.333,121370
1,662.257,121328
1,662.181,121242
1,662.105,121323
1,662.029,121090
1,661.953,121173
1,661.878,121122
1,661.802,121066
1,661.726,121114
1,661.65,120990
1,661.574,121012
1,661.498,120901
1,661.422,120757
1,661.346,121056
1,661.271,120898
1,661.195,120911
1,661.119,120673
1,661.043,120770
1,660.967,120714
1,660.891,120812
1,660.815,120912
1,660.739,121066
1,660.664,120670
1,660.588,120979
1,660.512,120584
1,660.436,120742
1,660.36,120580
1,660.284,120712
1,660.208,120871
1,660.133,120617
1,660.057,120867
1,659.981,120732
1,659.905,120639
1,659.829,120664
1,659.753,120704
1,659.677,120472
1,659.601,120588
1,659.526,120410
1,659.45,120507
1,659.374,120434
1,659.298,120601
1,659.222,120527
1,659.146,120573
1,659.07,120696
1,658.994,120570
1,658.919,120497
1,658.843,120502
1,658.767,120477
1,658.691,120830
1,658.615,120473
1,658.539,120757
1,658.463,120330
1,658.387,120458
1,658.312,120525
1,658.236,120632
1,658.16,120666
1,658.084,120764
1,658.008,120463
1,657.932,120484
1,657.856,120450
1,657.781,120396
1,657.705,120582
1,657.629,120766
1,657.553,120732
1,657.477,120696
1,657.401,120959
1,657.325,120809
1,657.249,120569
1,657.174,120579
1,657.098,120632
1,657.022,120693
1,656.946,120591
1,656.87,120489
1,656.794,120599
1,656.718,120267
1,656.642,119884
1,656.567,119779
1,656.491,119778
1,656.415,119825
1,656.339,119973
1,656.263,119964
1,656.187,120185
1,656.111,120405
1,656.035,120466
1,655.96,120700
1,655.884,121050
1,655.808,121018
1,655.732,121097
1,655.656,121252
1,655.58,121294
1,655.504,121189
1,655.429,121495
1,655.353,121767
1,655.277,121780
1,655.201,121912
1,655.125,122266
1,655.049,122068
1,654.973,121810
1,654.897,121829
1,654.822,121904
1,654.746,121897
1,654.67,121663
1,654.594,121932
1,654.518,121977
1,654.442,122048
1,654.366,122055
1,654.29,122004
1,654.215,121783
1,654.139,121714
1,654.063,121744
1,653.987,121816
1,653.911,122103
1,653.835,121837
1,653.759,121700
1,653.684,121825
1,653.608,121635
1,653.532,121546
1,653.456,121704
1,653.38,121822
1,653.304,121629
1,653.228,121878
1,653.152,121903
1,653.077,121554
1,653.001,121672
1,652.925,121781
1,652.849,121715
1,652.773,121618
1,652.697,121630
1,652.621,121568
1,652.545,121596
1,652.47,121790
1,652.394,121574
1,652.318,121710
1,652.242,121685
1,652.166,121563
1,652.09,121826
1,652.014,121796
1,651.938,121678
1,651.863,121696
1,651.787,121652
1,651.711,121583
1,651.635,121701
1,651.559,121443
1,651.483,121685
1,651.407,121675
1,651.332,121743
1,651.256,121776
1,651.18,121926
1,651.104,121949
1,651.028,122004
1,650.952,122280
1,650.876,122225
1,650.8,122473
1,650.725,122276
1,650.649,122704
1,650.573,122509
1,650.497,122439
1,650.421,122877
1,650.345,122757
1,650.269,122645
1,650.193,122571
1,650.118,122442
1,650.042,122685
1,649.966,122474
1,649.89,122112
1,649.814,122016
1,649.738,122030
1,649.662,121866
1,649.586,121650
1,649.511,121341
1,649.435,121317
1,649.359,121061
1,649.283,121254
1,649.207,121053
1,649.131,120999
1,649.055,120996
1,648.98,121025
1,648.904,120915
1,648.828,120808
1,648.752,120660
1,648.676,120645
1,648.6,120854
1,648.524,120591
1,648.448,120122
1,648.373,120246
1,648.297,120258
1,648.221,120301
1,648.145,120393
1,648.069,120195
1,647.993,120220
1,647.917,120200
1,647.841,120044
1,647.766,120285
1,647.69,120114
1,647.614,119989
1,647.538,119956
1,647.462,119702
1,647.386,119881
1,647.31,119649
1,647.234,119737
1,647.159,119811
1,647.083,119597
1,647.007,119819
1,646.931,119547
1,646.855,119473
1,646.779,119424
1,646.703,119426
1,646.628,119696
1,646.552,119427
1,646.476,119743
1,646.4,119392
1,646.324,119275
1,646.248,119339
1,646.172,119295
1,646.096,119219
1,646.021,119170
1,645.945,118928
1,645.869,119262
1,645.793,119236
1,645.717,118934
1,645.641,119429
1,645.565,119271
1,645.489,119368
1,645.414,119205
1,645.338,119340
1,645.262,118942
1,645.186,118869
1,645.11,118980
1,645.034,118919
1,644.958,118948
1,644.882,119143
1,644.807,119038
1,644.731,118891
1,644.655,119085
1,644.579,119025
1,644.503,119141
1,644.427,119369
1,644.351,119705
1,644.276,119868
1,644.2,119753
1,644.124,120030
1,644.048,120203
1,643.972,120713
1,643.896,120768
1,643.82,121052
1,643.744,121289
1,643.669,120902
1,643.593,121039
1,643.517,121760
1,643.441,122080
1,643.365,121145
1,643.289,121067
1,643.213,120731
1,643.137,120457
1,643.062,119802
1,642.986,119287
1,642.91,119359
1,642.834,119141
1,642.758,119182
1,642.682,119364
1,642.606,119050
1,642.53,119246
1,642.455,118867
1,642.379,119354
1,642.303,119234
1,642.227,118761
1,642.151,118596
1,642.075,118643
1,641.999,118613
1,641.924,118017
1,641.848,118494
1,641.772,118344
1,641.696,118017
1,641.62,118333
1,641.544,117691
1,641.468,117695
1,641.392,117163
1,641.317,116914
1,641.241,116825
1,641.165,116699
1,641.089,116754
1,641.013,116807
1,640.937,116683
1,640.861,116966
1,640.785,117000
1,640.71,116891
1,640.634,117125
1,640.558,117624
1,640.482,118270
1,640.406,118479
1,640.33,118640
1,640.254,119451
1,640.179,120399
1,640.103,120769
1,640.027,121133
1,639.951,121294
1,639.875,122789
1,639.799,125303
1,639.723,125800
1,639.647,125698
1,639.572,124871
1,639.496,125184
1,639.42,125879
1,639.344,123556
1,639.268,120009
1,639.192,118284
1,639.116,117393
1,639.04,116617
1,638.965,116200
1,638.889,115497
1,638.813,115149
1,638.737,114829
1,638.661,114705
1,638.585,114695
1,638.509,114494
1,638.433,114329
1,638.358,114426
1,638.282,114090
1,638.206,114240
1,638.13,114154
1,638.054,114020
1,637.978,114178
1,637.902,114108
1,637.827,114327
1,637.751,113883
1,637.675,113876
1,637.599,113953
1,637.523,114267
1,637.447,114318
1,637.371,114322
1,637.295,114467
1,637.22,114725
1,637.144,115138
1,637.068,115397
1,636.992,115520
1,636.916,115893
1,636.84,116014
1,636.764,115988
1,636.688,116052
1,636.613,115763
1,636.537,115507
1,636.461,115499
1,636.385,115384
1,636.309,115277
1,636.233,115217
1,636.157,115154
1,636.081,115429
1,636.006,115645
1,635.93,116155
1,635.854,117262
1,635.778,118195
1,635.702,119091
1,635.626,119335
1,635.55,119703
1,635.475,119761
1,635.399,120341
1,635.323,120707
1,635.247,121133
1,635.171,122259
1,635.095,124346
1,635.019,125785
1,634.943,126905
1,634.868,129017
1,634.792,131185
1,634.716,138318
1,634.64,146406
1,634.564,150641
1,634.488,167174
1,634.412,210133
1,634.336,241486
1,634.261,276643
1,634.185,367214
1,634.109,624934
1,634.033,801448
1,633.957,977972
1,633.881,1.07525e+006
1,633.805,997752
1,633.729,878161
1,633.654,755764
1,633.578,557256
1,633.502,473313
1,633.426,414138
1,633.35,336160
1,633.274,235434
1,633.198,195839
1,633.123,191867
1,633.047,175837
1,632.971,149622
1,632.895,139444
1,632.819,136945
1,632.743,132804
1,632.667,128094
1,632.591,125858
1,632.516,124810
1,632.44,123132
1,632.364,122202
1,632.288,121015
1,632.212,120392
1,632.136,119689
1,632.06,119462
1,631.984,118917
1,631.909,118178
1,631.833,117633
1,631.757,117388
1,631.681,116973
1,631.605,116655
1,631.529,116198
1,631.453,115695
1,631.377,115140
1,631.302,114681
1,631.226,114415
1,631.15,113978
1,631.074,113769
1,630.998,113013
1,630.922,112485
1,630.846,112099
1,630.771,111856
1,630.695,111655
1,630.619,111294
1,630.543,110886
1,630.467,110631
1,630.391,110268
1,630.315,110037
1,630.239,109826
1,630.164,109469
1,630.088,109330
1,630.012,108979
1,629.936,108746
1,629.86,108445
1,629.784,108424
1,629.708,108276
1,629.632,107867
1,629.557,108080
1,629.481,107694
1,629.405,107568
1,629.329,107396
1,629.253,107163
1,629.177,107191
1,629.101,106954
1,629.025,106886
1,628.95,106743
1,628.874,106595
1,628.798,106569
1,628.722,106702
1,628.646,106374
1,628.57,106211
1,628.494,106074
1,628.419,105773
1,628.343,105896
1,628.267,105807
1,628.191,105644
1,628.115,105594
1,628.039,105379
1,627.963,105590
1,627.887,105297
1,627.812,105102
1,627.736,105111
1,627.66,105079
1,627.584,105201
1,627.508,104608
1,627.432,104782
1,627.356,104538
1,627.28,104761
1,627.205,104613
1,627.129,104270
1,627.053,104444
1,626.977,104081
1,626.901,104073
1,626.825,104045
1,626.749,104099
1,626.674,104029
1,626.598,103822
1,626.522,103824
1,626.446,103710
1,626.37,103551
1,626.294,103614
1,626.218,103441
1,626.142,103433
1,626.067,103363
1,625.991,103388
1,625.915,103289
1,625.839,103179
1,625.763,103367
1,625.687,103214
1,625.611,103214
1,625.535,103238
1,625.46,102951
1,625.384,103117
1,625.308,102801
1,625.232,102984
1,625.156,102695
1,625.08,102707
1,625.004,102677
1,624.928,102664
1,624.853,102520
1,624.777,102574
1,624.701,102351
1,624.625,102260
1,624.549,102401
1,624.473,101985
1,624.397,101918
1,624.322,102282
1,624.246,102076
1,624.17,101755
1,624.094,101715
1,624.018,101684
1,623.942,101660
